0.2650912451011678,0.47013875379076536,0.9898915603562218,0.37777026787327306,-0.13401722194019575,-0.3101003146014997,-0.3112322346199831,0.1288465022674953,0.28121303945589904,0.2952630313937856,0.2830499860364553,0.2657093496339924,0.2595046218263691,0.2644628691728707,0.2497631620951889,0.23978260411606225,0.21668577815417717,0.201600319096653,0.1880531006940218,0.18742860368255307,0.18838122218549783,0.17469388182290713,0.15774824401641727,0.14405456535807384,0.12713423007155106,0.12323704845521105,0.10802443380141782,0.08313335047159559,0.0664353272389385,0.05307233086237356,0.04630354819116128,0.04614087980611969,0.03798440068978068,0.02996310146779172,0.041570356017554294,0.05982917933308417,0.09124450399734381,0.12608585891345986,0.15624582721543295,0.16874583024778722,0.1944412903675463,0.21223445169397737,0.2172616906738349,0.2176464062087661,0.20202878545123776,0.1980121782031395,0.18774063142740413,0.19069794245413346,0.18577920857542427,0.18110176175475134,0.17666445279257695,0.17246522698055453,0.18148922991522476,0.17938000443893343,0.17262688456236097,0.1709653283029534,0.1630242946496129,0.16503156547229655,0.18022602389233694,0.18424605016554282,0.17708178021851215,0.17495753328153116,0.17299110728186382,0.18740506125322862,0.21493896383308078,0.25720197799375094,0.288202514305054,0.30792386458121757,0.28550118100941324,0.2809846615475484,0.2602594703507787,0.2346676593459814,0.20256189553553058,0.1898933502911999,0.19988303582777062,0.2081513371855757,0.2146702967906776,0.2194109163124527,0.24669578086970195,0.30623478444609953,0.519758808830595,0.9570448701296105,0.5416690055594237,-0.04940624322261567,-0.3372893182182429,-0.33663114566783553,0.08081831057212373,0.17963350539843081,0.20498880346624998,0.2039893959491616,0.2107513654495769,0.21555499238129208,0.21517354521485174,0.22099080872638416,0.0,0.0,0.0,0.0,0.0,0.0,0.0,0.0,0.0,0.0,0.0,0.0,0.0,0.0,0.0,0.0,0.0,0.0,0.0,0.0,0.0,0.0,0.0,0.0,0.0,0.0,0.0,0.0,0.0,0.0,0.0,0.0,0.0,0.0,0.0,0.0,0.0,0.0,0.0,0.0,0.0,0.0,0.0,0.0,0.0,0.0,0.0,0.0,0.0,0.0,0.0,0.0,0.0,0.0,0.0,0.0
0.30623478444609953,0.519758808830595,0.9570448701296105,0.5416690055594237,-0.04940624322261567,-0.3372893182182429,-0.33663114566783553,0.08081831057212373,0.17963350539843081,0.20498880346624998,0.2039893959491616,0.2107513654495769,0.21555499238129208,0.21517354521485174,0.22099080872638416,0.20380173048944356,0.19122301899232733,0.19625876963413516,0.1945713812708117,0.19104545962554384,0.18407059575103624,0.1639178732057261,0.14845713290276788,0.13607527072522335,0.13489950299085302,0.13032721929354896,0.10450811382290054,0.08504952182742974,0.07358208876078697,0.0587479512018621,0.047047492806434076,0.025498678049798912,0.0006013616105153655,-0.009780156152490819,-0.025122318315161863,-0.017818835690182024,-0.018707408792176243,-0.024530325825106756,-0.019040014161949143,0.009142897845092764,0.05029395475103968,0.07845355086248394,0.10662607989769796,0.13158043877326062,0.14196743900838177,0.15403691192777372,0.16455585357822677,0.1605494271016082,0.1550181401148198,0.14472659295368875,0.1410502049438868,0.13425803588399998,0.14384162848267998,0.1357160091963999,0.12125377796851994,0.10695632480217257,0.10744198569856991,0.09998782144924001,0.09434056470366076,0.09862293771880845,0.07549889835380663,0.07205445492957349,0.07043482013677899,0.08363154500830265,0.07917753570789389,0.07006357293660642,0.07252706241460326,0.06059378775594111,0.06348852535475756,0.06822447684800972,0.056943995069846216,0.04750632170669737,0.04802935100465472,0.050395635144262124,0.05460503842627799,0.05416313135970931,0.049069253241946616,0.05068704572848096,0.05252129014120417,0.06268810844732459,0.07144474502026682,0.0674246203395193,0.060366433554966244,0.060008546693390084,0.05985391541546638,0.07451083123325802,0.06825846233403964,0.07031602248668603,0.06931462283291263,0.07986119018862496,0.08409209572873616,0.08037841585614758,0.08170240059382702,0.08156377263193602,0.0,0.0,0.0,0.0,0.0,0.0,0.0,0.0,0.0,0.0,0.0,0.0,0.0,0.0,0.0,0.0,0.0,0.0,0.0,0.0,0.0,0.0,0.0,0.0,0.0,0.0,0.0,0.0,0.0,0.0,0.0,0.0,0.0,0.0,0.0,0.0,0.0,0.0,0.0,0.0,0.0,0.0,0.0,0.0,0.0,0.0,0.0,0.0,0.0,0.0,0.0,0.0,0.0,0.0,0.0,0.0
0.8318438935551898,0.5263191906519443,-0.049001783715938926,-0.4590553583736884,-0.15512747523950596,0.012073523201901972,0.14160764681141377,0.16693677883611302,0.17575558755727055,0.1762058943559615,0.18941672546247434,0.19105793338259608,0.19089214305975835,0.18406943006718074,0.18359753050470048,0.19598921831142863,0.19366262991755157,0.1912461935954058,0.17252067068969384,0.15698309628881607,0.16250613242442555,0.16150336351766428,0.14911670780652678,0.15295748508006815,0.1227077677808968,0.10221246986104245,0.08661057813187845,0.08240514151618634,0.08311069225670559,0.06762975648992282,0.04733465386674156,0.04009140770285824,0.029672085119427948,0.040436314115414936,0.03992070846057081,0.04923752470507583,0.07164020480823476,0.0973938609145776,0.13137484104815544,0.17034145399674527,0.18345167396622225,0.17882687433664526,0.19543420984418777,0.2105465438616829,0.21442384621806573,0.21356013854349107,0.2063308180819131,0.21546287107750187,0.2149769385185198,0.21948034541372147,0.22085019553965418,0.22232706844489547,0.20929182443971212,0.212582504894058,0.21595430157034154,0.22751400011935521,0.23426167052626298,0.21670220339265236,0.2170327152407268,0.219002862759492,0.22097281155492265,0.2229251426720735,0.2232178218385475,0.22670174196980986,0.2171210439980955,0.24315915348268602,0.27069937725455356,0.3581639021923556,0.8675700164625246,0.86861889651043,0.2200334612807986,-0.22100878453887077,-0.42856878856606734,-0.0536079223583613,0.11487232873246034,0.182429831927279,0.2107870978436966,0.21620743225512615,0.2149530869994912,0.20867363879700884,0.2055116314160368,0.20386750253637534,0.2037641727330613,0.1987295014300434,0.19203139195076976,0.17719569125081808,0.1834645161034721,0.16864463735422733,0.16684689983551215,0.16347599155475095,0.1439357662848689,0.12934649039349927,0.11322803286174732,0.1053347204722054,0.0,0.0,0.0,0.0,0.0,0.0,0.0,0.0,0.0,0.0,0.0,0.0,0.0,0.0,0.0,0.0,0.0,0.0,0.0,0.0,0.0,0.0,0.0,0.0,0.0,0.0,0.0,0.0,0.0,0.0,0.0,0.0,0.0,0.0,0.0,0.0,0.0,0.0,0.0,0.0,0.0,0.0,0.0,0.0,0.0,0.0,0.0,0.0,0.0,0.0,0.0,0.0,0.0,0.0,0.0,0.0
0.8675700164625246,0.86861889651043,0.2200334612807986,-0.22100878453887077,-0.42856878856606734,-0.0536079223583613,0.11487232873246034,0.182429831927279,0.2107870978436966,0.21620743225512615,0.2149530869994912,0.20867363879700884,0.2055116314160368,0.20386750253637534,0.2037641727330613,0.1987295014300434,0.19203139195076976,0.17719569125081808,0.1834645161034721,0.16864463735422733,0.16684689983551215,0.16347599155475095,0.1439357662848689,0.12934649039349927,0.11322803286174732,0.1053347204722054,0.09106765706639286,0.06394497207919601,0.04995454867509414,0.034496188958858316,0.028945612516818656,0.020325709653451922,0.024882414106262577,0.023144328009540645,0.0475922635941108,0.07875458286055241,0.10852398302188432,0.1498984034123318,0.16392290623759984,0.1782057328005265,0.1846370748147529,0.20108240021955825,0.19994796107381851,0.19585027581264994,0.1806757167838487,0.1771563756983163,0.1739297213670978,0.1758674413532991,0.1748522699442678,0.16926010390372037,0.16720702845438687,0.1719377511582961,0.17046103900839557,0.17738447701657334,0.1732210783682504,0.17257668884773444,0.17869171496018418,0.17694708533998085,0.1868165546842031,0.2017968257002001,0.1926545206650328,0.21457779644811714,0.24807236579014558,0.29799552534373713,0.3204980177978645,0.32855196173266027,0.3042811746236839,0.2915012284156543,0.2707092659650547,0.24513011896974088,0.23909290147535978,0.23146720918193375,0.2417092036598255,0.26167421143565545,0.3238041118248734,0.46053947577187165,0.6361318161579393,0.7011846114294128,0.34557062448755016,-0.12065989449297404,-0.2040017419570962,-0.19671731110242796,0.19179063780731867,0.25692612472251986,0.28118656630385974,0.30191801611891844,0.30775980820062726,0.314949444699533,0.31699374261962676,0.31226847557785736,0.31051240539621766,0.3214627325543222,0.3126438331815163,0.31002485241566297,0.0,0.0,0.0,0.0,0.0,0.0,0.0,0.0,0.0,0.0,0.0,0.0,0.0,0.0,0.0,0.0,0.0,0.0,0.0,0.0,0.0,0.0,0.0,0.0,0.0,0.0,0.0,0.0,0.0,0.0,0.0,0.0,0.0,0.0,0.0,0.0,0.0,0.0,0.0,0.0,0.0,0.0,0.0,0.0,0.0,0.0,0.0,0.0,0.0,0.0,0.0,0.0,0.0,0.0,0.0,0.0
0.7011846114294128,0.34557062448755016,-0.12065989449297404,-0.2040017419570962,-0.19671731110242796,0.19179063780731867,0.25692612472251986,0.28118656630385974,0.30191801611891844,0.30775980820062726,0.314949444699533,0.31699374261962676,0.31226847557785736,0.31051240539621766,0.3214627325543222,0.3126438331815163,0.31002485241566297,0.30385614220079327,0.29899809843722086,0.30030959774454813,0.3029069590315217,0.2970344682987173,0.2778054283720976,0.26468431370619167,0.2479110215672963,0.24207678260104837,0.23092488928349217,0.19982093416015267,-0.11264423376376553,-0.11391426610253262,-0.11571743580861865,-0.11805718692758319,0.14857676491480515,0.14519771373536863,0.13807939555048437,-0.132522566511666,-0.13732715937043902,0.21623490773566592,0.23334340175224388,0.2598472090758471,0.2827982391859649,0.3135997591269501,0.3344304337908687,0.33233789143117237,0.3187207449500528,0.3195875396407894,0.302498850870756,0.30320109511217236,0.29412226866064095,0.28340608178095517,0.27270073231298886,0.27014704287978275,0.25790830534641324,0.24574613855043867,0.23692682997431455,0.2201038442892585,0.20503509742645865,0.19660687343769995,0.19158687893231027,0.19161236884543206,0.1755904938302981,0.16463871826653848,0.15552097178040558,0.1531179130715298,0.1493213396075313,0.14413983553343443,0.12621666521380778,0.11666458138192029,0.12036060115377567,0.11458148061477402,0.11232060402197573,0.10059461547073548,0.08914874380090251,0.08610420442585484,0.08984070429488795,0.09224347802269935,0.0835738005670711,0.08656269473627333,0.0801059832279376,0.07556926499409994,0.08594124891027412,0.07712846285722544,0.07348338133165534,0.06526437366667885,0.06545858812601887,0.07081774211759095,0.07646971530297604,0.07754203325504441,0.06591481829130186,0.07405556635393563,0.06786751522189115,0.08144097143882606,0.08554899452845945,0.08343444587753146,0.0,0.0,0.0,0.0,0.0,0.0,0.0,0.0,0.0,0.0,0.0,0.0,0.0,0.0,0.0,0.0,0.0,0.0,0.0,0.0,0.0,0.0,0.0,0.0,0.0,0.0,0.0,0.0,0.0,0.0,0.0,0.0,0.0,0.0,0.0,0.0,0.0,0.0,0.0,0.0,0.0,0.0,0.0,0.0,0.0,0.0,0.0,0.0,0.0,0.0,0.0,0.0,0.0,0.0,0.0,0.0
0.6630222745905536,0.403247634597583,-0.12289021414941695,-0.20107839948809136,-0.07486354218814761,0.1128844875390805,0.18358570154410148,0.22166824070479915,0.21739572167370297,0.22597107089789484,0.2409027306168794,0.2540745027614125,0.2476279220282333,0.24753803498320254,0.24730844098469285,0.24693554351447722,0.2610261035926691,0.2603508653200288,0.25951404990843435,0.25688347228149766,0.2573196916061571,0.2543174094582316,0.2592286558024155,0.25255749040187075,0.22941827095702577,0.22388834326231047,0.21159752969861922,-0.09808118115147119,0.20562187681846025,-0.09493651697237102,0.1821478389020645,0.16991797265379516,-0.09266516525054376,0.16393823009307926,0.15720077333481658,-0.09339157658973814,-0.09428859435783654,-0.09549897010136453,0.2244532430589122,0.24866402234270807,0.2904997124982324,0.33050577200783127,0.33623812322813623,0.36129709001679644,0.36511770874399774,0.3720736274302319,0.35458433399884215,0.3418903218738212,0.34050116520997703,0.3520541973503259,0.3440913296107861,0.3361050475448939,0.32648048035541677,0.32821267080042915,0.32182482016772584,0.3154381663894434,0.31717233827361796,0.29942815746278745,0.29467474651337316,0.296415479959555,0.30139927986856757,0.29500901305648825,0.2853551856905095,0.2821703393461524,0.2805739947424639,0.28542532446715757,0.2918410355176093,0.28032481368402756,0.28657824096683554,0.4778058444672945,0.6867675649963155,0.34683738280068543,-0.13613139412768274,-0.20530071981815565,-0.20973844881145967,0.06486519524774824,0.2256470042981263,0.25152733977956154,0.2561768025286138,0.24936006672793337,0.23921701522276417,0.24525085723177378,0.23014074001976656,0.22475202363980465,0.20312605157246344,0.18476133623322913,0.17779080123357272,0.17248783139095095,0.1672424748357839,0.14907934408557696,0.13586891405994592,0.12112825748087717,0.10811483044615004,0.09846197295886289,0.0,0.0,0.0,0.0,0.0,0.0,0.0,0.0,0.0,0.0,0.0,0.0,0.0,0.0,0.0,0.0,0.0,0.0,0.0,0.0,0.0,0.0,0.0,0.0,0.0,0.0,0.0,0.0,0.0,0.0,0.0,0.0,0.0,0.0,0.0,0.0,0.0,0.0,0.0,0.0,0.0,0.0,0.0,0.0,0.0,0.0,0.0,0.0,0.0,0.0,0.0,0.0,0.0,0.0,0.0,0.0
0.6867675649963155,0.34683738280068543,-0.13613139412768274,-0.20530071981815565,-0.20973844881145967,0.06486519524774824,0.2256470042981263,0.25152733977956154,0.2561768025286138,0.24936006672793337,0.23921701522276417,0.24525085723177378,0.23014074001976656,0.22475202363980465,0.20312605157246344,0.18476133623322913,0.17779080123357272,0.17248783139095095,0.1672424748357839,0.14907934408557696,0.13586891405994592,0.12112825748087717,0.10811483044615004,0.09846197295886289,0.0873084426343856,0.06492197341804201,0.032934435886699504,0.023824074621842894,0.02461067683774793,0.015819868814741532,-0.0009172103261128561,-0.002863864668975147,0.0018699902224916004,0.023033325839100966,0.046022447520806704,0.07733918133505432,0.1023794873429306,0.12764457480373642,0.14502354699879075,0.1658869944272652,0.17075808385611185,0.16126478851143142,0.1520223114560562,0.14140994489493655,0.13917079409522284,0.13718864228700775,0.13871115002017084,0.11938561419368364,0.11979905628652418,0.1237150349808124,0.12788459359053825,0.12905815685451663,0.12398551008859425,0.12402738739837868,0.1210617775212,0.12320115359139039,0.13368685207421266,0.1379009784418286,0.1358365638126848,0.1307329707071233,0.13719345563642457,0.16170306918004573,0.18964054005604472,0.23885399753501166,0.26225020454908,0.2695575956291821,0.25913872088147033,0.24071935579787612,0.21915344881654486,0.18143512979150975,0.16488625686477096,0.16948704057461955,0.1741112311339414,0.18685491948150965,0.18659013783885148,0.21388138138186485,0.25571636737375963,0.45169172628986587,0.6167007193448948,0.6159631733501372,0.06305171133723096,-0.23518394023352931,-0.25117938778948257,0.05401667789011216,0.1706328948206944,0.19933756141042405,0.20183387202153286,0.21547136752753687,0.22239922421719893,0.23398872918353433,0.2323868693623469,0.23708020217385398,0.22209583040889677,0.23127062095324336,0.0,0.0,0.0,0.0,0.0,0.0,0.0,0.0,0.0,0.0,0.0,0.0,0.0,0.0,0.0,0.0,0.0,0.0,0.0,0.0,0.0,0.0,0.0,0.0,0.0,0.0,0.0,0.0,0.0,0.0,0.0,0.0,0.0,0.0,0.0,0.0,0.0,0.0,0.0,0.0,0.0,0.0,0.0,0.0,0.0,0.0,0.0,0.0,0.0,0.0,0.0,0.0,0.0,0.0,0.0,0.0
0.6167007193448948,0.6159631733501372,0.06305171133723096,-0.23518394023352931,-0.25117938778948257,0.05401667789011216,0.1706328948206944,0.19933756141042405,0.20183387202153286,0.21547136752753687,0.22239922421719893,0.23398872918353433,0.2323868693623469,0.23708020217385398,0.22209583040889677,0.23127062095324336,0.23213533890399582,0.23280735433999902,0.2219207512226764,0.20759057491740626,0.20767182390617436,0.2010542078366378,0.20721415933218212,0.19367477123654814,0.17666341392449714,0.16266542667657055,0.14680069228248283,0.1436704056455413,0.12891077678413784,0.11549803779269588,0.0904316089574527,0.08454511531609162,0.07509588478625222,0.06856401072108759,-0.2500258587776672,-0.2540133554598632,0.08096326317209188,0.1104035640862686,0.14930138739022214,0.18794793049490507,0.20851609203736335,0.22402452952947458,0.23450277427550478,0.24809678972404173,0.2615867936360444,0.2571401692079779,0.24452266941003534,0.23349876151156387,0.2322081797151694,0.22768385483552933,0.22968670299393704,0.21550629282453343,0.19977178495600414,0.19873477293896444,0.19779915285062039,0.18886186890788903,0.18005398086586205,0.1583999682761657,0.158005213568945,0.15939846221250473,0.1560957532762327,0.14810637065078136,0.14030934910821846,0.13108894107518274,0.128569760151931,0.12301714950668144,0.1339189976199419,0.12718673292447347,0.11094238604629099,0.1095424562116836,0.10350810569337458,0.11070068947986607,0.11488732549785943,0.10632861998418419,0.10126077199334474,0.10455487576298818,0.09997588333278067,0.10051141212909999,0.1045369856183621,0.09906305153616486,0.10519325445445024,0.09532543002808495,0.0954327329076623,0.11200571567589848,0.10769967151020955,0.10036868897482601,0.10299578677543916,0.10258731451999274,0.10887825318501118,0.11374445582311309,0.1106847415490449,0.11267948619600084,0.11647340763952836,0.12692821262471327,0.0,0.0,0.0,0.0,0.0,0.0,0.0,0.0,0.0,0.0,0.0,0.0,0.0,0.0,0.0,0.0,0.0,0.0,0.0,0.0,0.0,0.0,0.0,0.0,0.0,0.0,0.0,0.0,0.0,0.0,0.0,0.0,0.0,0.0,0.0,0.0,0.0,0.0,0.0,0.0,0.0,0.0,0.0,0.0,0.0,0.0,0.0,0.0,0.0,0.0,0.0,0.0,0.0,0.0,0.0,0.0
0.261511466795729,0.4290253597276059,0.6059755339493087,0.9384438376496915,0.3289000818402044,-0.35898998698704876,-0.3589728940440074,-0.028230294242433014,0.1267272982186077,0.17411475151944514,0.1951343838310697,0.204423714161564,0.20850173358012178,0.2073923692237902,0.2043655266277363,0.1929490116449174,0.18452822328799068,0.1872405749177671,0.1962344736267899,0.18555175441060665,0.17144454288063846,0.15555244280898914,0.1557493052789871,0.15743799454386836,0.1460205961103425,0.1344980860028428,0.1098945428885193,0.10144464473233354,0.09617124823829108,0.08921425515414325,0.07084255501121832,0.037818633083144454,0.029115892219016226,0.015520107132218585,0.016522220558492506,0.011025336298195616,-0.005832419925478287,-0.003195747541350856,-0.020019741394289015,-0.018954201423629358,-0.0016112765747298072,0.020657622135823502,0.030007194949143445,0.05242682105986772,0.07169445783841762,0.10568152004238117,0.1284242817154216,0.13993465574790445,0.1321063606418171,0.13904368701410985,0.14289793044132468,0.14530181672229533,0.13814629444583987,0.12630966931884413,0.11954008767690323,0.1145969806801145,0.10336865042795505,0.11508356646305856,0.1026646901752928,0.10183344065978252,0.09635838917959653,0.09760727553829675,0.09584172185337841,0.09431094583311025,0.07840507098981875,0.07734853152273675,0.0781540978175005,0.0824457475976338,0.08860004690938349,0.08687559730328881,0.07240108868983622,0.07926902748297952,0.08150167131565432,0.09533215326390052,0.09478192710715971,0.08958919993877316,0.0878681944890527,0.09123864372873468,0.0932022890206135,0.1034955200682039,0.10750160376266683,0.09709733133113863,0.10799373873437212,0.11096095831070721,0.1124858124044561,0.11580754764835167,0.12254133779267087,0.12456071482958904,0.12023263985816808,0.1322761079748045,0.14119824132445374,0.15023464701904615,0.16749075753948708,0.17671859739253817,0.0,0.0,0.0,0.0,0.0,0.0,0.0,0.0,0.0,0.0,0.0,0.0,0.0,0.0,0.0,0.0,0.0,0.0,0.0,0.0,0.0,0.0,0.0,0.0,0.0,0.0,0.0,0.0,0.0,0.0,0.0,0.0,0.0,0.0,0.0,0.0,0.0,0.0,0.0,0.0,0.0,0.0,0.0,0.0,0.0,0.0,0.0,0.0,0.0,0.0,0.0,0.0,0.0,0.0,0.0,0.0
0.279354230251421,0.47464491288236543,0.8320667103523576,0.6502330376035431,0.08496666863650082,-0.45789226389071686,-0.14065027155062076,-0.003971960727405447,0.1161361803888129,0.15637657746903993,0.1882024431350737,0.20189068545612926,0.20719939692993297,0.20739161878720816,0.20735286671508732,0.19897953581545766,0.20339017258696326,0.20923211956269072,0.2002811709646819,0.1846647316552895,0.1818737782647686,0.17081060276486829,0.17096434909329375,0.15636501443970724,0.15299407568063028,0.1267623410919376,0.12475537664882108,0.106388550031496,0.08627596055868718,0.0676666024326119,0.04082095484853329,0.028469367736580476,0.003013162866896975,-0.004700104015031639,-0.014151716284745534,-0.028587406273964368,-0.04313400963439124,-0.05129213576073915,-0.031946702236260636,-0.004565515226158564,0.01138665404107665,0.04190376075593064,0.06265087912040757,0.08663361424576774,0.11549268481511843,0.13138625090276865,0.13595402056033026,0.15031717034888747,0.14689088345760445,0.15004192599839872,0.1646542041880435,0.1615171545124099,0.15525417242798362,0.1507467830851144,0.14151116218953244,0.1519094303275367,0.14298609284725278,0.139101803232017,0.12402873869985383,0.12050263184122524,0.11716487558162758,0.12700891713430668,0.1159458147397069,0.10508534700907994,0.10092511874405852,0.10833869886614644,0.10135245305676943,0.10756805026585793,0.09776378681229016,0.08492869296293463,0.0934158833394831,0.0923786925047696,0.09805179109063472,0.09744619967436624,0.09380755310823558,0.0984985512804852,0.09365823688050172,0.1003894109863691,0.09433611368995741,0.09660017583111119,0.0990597684080161,0.0968396003247665,0.09805196881376585,0.1091851764560221,0.10912735786500263,0.10436577943598895,0.11437524555462453,0.11479525653601994,0.13159356487426915,0.13066746231160872,0.1412304903048133,0.16002532790546764,0.16593533302537208,0.19953646067865588,0.0,0.0,0.0,0.0,0.0,0.0,0.0,0.0,0.0,0.0,0.0,0.0,0.0,0.0,0.0,0.0,0.0,0.0,0.0,0.0,0.0,0.0,0.0,0.0,0.0,0.0,0.0,0.0,0.0,0.0,0.0,0.0,0.0,0.0,0.0,0.0,0.0,0.0,0.0,0.0,0.0,0.0,0.0,0.0,0.0,0.0,0.0,0.0,0.0,0.0,0.0,0.0,0.0,0.0,0.0,0.0
0.21206754254228338,0.30394874611918393,0.5060819782665623,0.8541592253044155,0.4535984533481385,-0.11603915060132992,-0.2524655211878033,-0.14890169149880364,0.03554900912393204,0.13367984473238972,0.17310515604077878,0.19117967808444847,0.20090462357205913,0.20391567614012335,0.20834155671561125,0.19146326803262817,0.1922541683464641,0.19935783454085787,0.20141688222870618,0.1919434615939149,0.18393084117670555,0.1741362252660525,0.17068047167048148,0.16869548389024075,0.16493582247661376,0.1447906313297072,0.13098897009857527,0.11703598631802496,0.10455372484498227,0.08704609308947207,0.06451051750647055,0.045061541587457836,0.028695834004357112,0.010539306761201479,-0.0029176984433885145,-0.02791403895484088,-0.040100533602383845,-0.05246608980960472,-0.05526665910188383,-0.050117781899826915,-0.024018154210879883,0.0019445696255196115,0.02129661107512925,0.05841088049534298,0.08083731589171224,0.11944247089774872,0.1417755872780219,0.15110253955941277,0.15393551429765376,0.16490349480274885,0.16778799609264633,0.17234587592212297,0.1623569858516725,0.15731754568707498,0.15237030664827242,0.15077478563444793,0.15903675860003916,0.14956752810428334,0.14185940467104813,0.13592182554583368,0.1301400082237228,0.12127498013727657,0.1255692434597418,0.1219239535614047,0.1135922947672428,0.10382684178246564,0.10399715361777853,0.11086067606913262,0.10818625131955965,0.10571833450301349,0.09696573528825236,0.09329534973969483,0.09957954727950748,0.10445512631916899,0.10629945009278512,0.09212478638507263,0.08953063281834549,0.0952693277765015,0.09635169926991077,0.105764266216607,0.10239934625485536,0.09437191636268032,0.09953750424173842,0.10328095666622616,0.11046874816354557,0.11460226368255799,0.11242935673517176,0.11043837054234026,0.11024655481805137,0.12483518025819763,0.13633826771141314,0.14312431838436973,0.15330221451276413,0.17173310180391338,0.0,0.0,0.0,0.0,0.0,0.0,0.0,0.0,0.0,0.0,0.0,0.0,0.0,0.0,0.0,0.0,0.0,0.0,0.0,0.0,0.0,0.0,0.0,0.0,0.0,0.0,0.0,0.0,0.0,0.0,0.0,0.0,0.0,0.0,0.0,0.0,0.0,0.0,0.0,0.0,0.0,0.0,0.0,0.0,0.0,0.0,0.0,0.0,0.0,0.0,0.0,0.0,0.0,0.0,0.0,0.0
0.18292704855055136,0.25706226071596344,0.4609903753988797,0.5885029110778589,0.8814779664163016,0.031338214571869236,-0.2637567190020882,-0.18567247057344075,-0.005542694458418418,0.10942126292866368,0.15111260616206718,0.16662334812513196,0.17219804752368278,0.18245691949340978,0.17630208820509938,0.17322252687978815,0.1683536704271631,0.17144168172482185,0.17274975644128285,0.17552831666380725,0.17003883710372253,0.15465946709774228,0.15374367304269718,0.14780936579644674,0.14984389656636332,0.14848122071208175,0.1274840130135721,0.1128254776329423,0.09476095133756936,0.08627435311495675,0.07437296089354851,0.054181173496992814,0.02731705969770886,0.005139480082611753,-0.007486883160257449,-0.023555988527591498,-0.03495544736806177,-0.049805737745368776,-0.05674189151498597,-0.06549984488142176,-0.03385780906088527,-0.012127868627774617,0.017568547377917056,0.03901744254244437,0.08146302530435445,0.11732644314619481,0.1514986453032646,0.17101137939131386,0.1596486146260781,0.16938090420893992,0.1726259908819072,0.18401204227070822,0.17757860153626895,0.16632854266075786,0.16001683082654788,0.1635270682131168,0.14927184784790992,0.15622687371218166,0.15030913302522145,0.14614014547376722,0.12911749103780154,0.13171982214500266,0.13447281112698886,0.1325130657968127,0.12260003205686494,0.12097461868493416,0.11952446465774,0.1150071354390904,0.11392066159083335,0.11302143591877624,0.10744177117202448,0.09718394635268546,0.10822587050831328,0.11459263225812488,0.11141441498610563,0.11167944410041244,0.10564624158961262,0.10305489648577983,0.11039794868299188,0.11306178690672339,0.10942033151985657,0.11408204211027821,0.10431409073615747,0.11420594491423981,0.12264719517542412,0.11826792374124809,0.12054429821175787,0.11810519623289652,0.12393154953002443,0.13801561567536957,0.1619725430368061,0.18280519582358443,0.1891391388356335,0.19070465874102424,0.0,0.0,0.0,0.0,0.0,0.0,0.0,0.0,0.0,0.0,0.0,0.0,0.0,0.0,0.0,0.0,0.0,0.0,0.0,0.0,0.0,0.0,0.0,0.0,0.0,0.0,0.0,0.0,0.0,0.0,0.0,0.0,0.0,0.0,0.0,0.0,0.0,0.0,0.0,0.0,0.0,0.0,0.0,0.0,0.0,0.0,0.0,0.0,0.0,0.0,0.0,0.0,0.0,0.0,0.0,0.0
0.22361018906205907,0.37944844367599206,0.5676342057389736,0.9115296450991676,0.23406222026518722,-0.2195675714388662,-0.22372496773136843,-0.049548546149944826,0.1000318086822581,0.1617128182458546,0.17284835197283768,0.1724149811845033,0.1734122457060846,0.18883882328790894,0.1927282737376212,0.18508937992305213,0.17729453424442101,0.16610360957450218,0.16288718639394364,0.17414448330516386,0.17228018495337732,0.16216831432925993,0.15517607483613857,0.15617581722219281,0.14081592819413755,0.1318258167280247,0.12595802046596283,0.1004822924802496,0.08137306965489771,0.05888705648779128,0.057374270132738256,0.037867525625901684,0.014975196094092792,-0.01130612875405051,-0.027991850458719707,-0.031837359198237755,-0.042324532272648735,-0.048085523818388466,-0.05073655076847822,-0.03565415739723732,-0.010939214354176743,0.031545899390084405,0.07234016638259418,0.103346984614661,0.12621045309712475,0.1539387272796596,0.16869263294518985,0.18672594570427548,0.19019787818303957,0.18886638708557324,0.17950039449942531,0.17347947226075433,0.17406474243677672,0.18126943879055973,0.1788708202275191,0.16200981247963386,0.1582966559926604,0.15962355118862637,0.1546348860994918,0.15307988653358162,0.14847190059085114,0.14406457369218645,0.1382402775387889,0.13262768441577896,0.1418428590340408,0.13666642072440086,0.1300895513916319,0.11886764507446393,0.12735512307156635,0.12632996738138405,0.13365132637516988,0.1347075077064616,0.12625072394592235,0.13100868138097926,0.13761473552416748,0.139572118204797,0.14824198816583325,0.1408910867683783,0.140243706858623,0.1381767382128399,0.15091902618967595,0.16222851619620882,0.1688504826715363,0.1642823680053874,0.16150289577580465,0.1653724158820207,0.17912696025539554,0.1865196085244827,0.1940316910305493,0.20652009506342558,0.2353347795680623,0.24636637819390558,0.2623272137852903,0.2637171055664187,0.0,0.0,0.0,0.0,0.0,0.0,0.0,0.0,0.0,0.0,0.0,0.0,0.0,0.0,0.0,0.0,0.0,0.0,0.0,0.0,0.0,0.0,0.0,0.0,0.0,0.0,0.0,0.0,0.0,0.0,0.0,0.0,0.0,0.0,0.0,0.0,0.0,0.0,0.0,0.0,0.0,0.0,0.0,0.0,0.0,0.0,0.0,0.0,0.0,0.0,0.0,0.0,0.0,0.0,0.0,0.0
0.29606268017819093,0.437589103911085,0.6275470131736304,0.9714293719529279,0.33436402010806565,-0.32257406431719066,-0.17468645318426443,-0.3194804506368576,0.14247109206888933,0.20462440203519652,0.23392483758007143,0.25150900732660836,0.2622772457397745,0.24839948339198561,0.23912614261785198,0.23773023650026445,0.24098954067782472,0.23593957941758856,0.2323438183864231,0.22535294947275292,0.22797511783324367,0.21587660143175397,0.2150513624117641,0.2173985640124751,0.20345172104251846,0.18134293902540202,0.17219138985317936,0.15652757736836087,0.1441043326175979,0.125191578568928,0.10142309084248302,0.07280850864710778,0.05234504770334439,0.04978253878240361,0.037529810502197614,0.020465651635822726,0.005092173760716671,0.0011584070328465933,0.021660377054098724,0.061735488646991035,0.08729785017106562,0.1210841271772082,0.1566073605659631,0.17276839173669348,0.20204312401395855,0.22820128327854144,0.22851754338202934,0.23221777167819818,0.21008031661092613,0.21730490911171643,0.22791470704079358,0.2159317817338365,0.22031748308874533,0.21346815275536107,0.20187275031738136,0.20013672028470958,0.21312343508313403,0.21160154693356942,0.20367938286781498,0.1958407014565411,0.19781526378029146,0.20309674718216356,0.1986837981153601,0.19755021480365034,0.1866926347975104,0.19531797968458392,0.20067990308073524,0.2092542701730207,0.2388805159227382,0.3203851126469863,0.5446632250358585,0.6892708983488605,0.4570799736732527,-0.13245661584638366,-0.39262542612043916,-0.062060168470003035,0.12867785817563812,0.21208316369834,0.2336376982178185,0.2225872469040317,0.21142344764523438,0.2164017208595075,0.21156515805945203,0.21479055099070007,0.19687183042467005,0.19354227131578175,0.16260566249639502,0.1592754522911475,0.15758875332666866,0.15755804910662902,0.16244205609771997,0.14140498345511526,0.13017415671285826,0.11577088077825769,0.0,0.0,0.0,0.0,0.0,0.0,0.0,0.0,0.0,0.0,0.0,0.0,0.0,0.0,0.0,0.0,0.0,0.0,0.0,0.0,0.0,0.0,0.0,0.0,0.0,0.0,0.0,0.0,0.0,0.0,0.0,0.0,0.0,0.0,0.0,0.0,0.0,0.0,0.0,0.0,0.0,0.0,0.0,0.0,0.0,0.0,0.0,0.0,0.0,0.0,0.0,0.0,0.0,0.0,0.0,0.0
0.6892708983488605,0.4570799736732527,-0.13245661584638366,-0.39262542612043916,-0.062060168470003035,0.12867785817563812,0.21208316369834,0.2336376982178185,0.2225872469040317,0.21142344764523438,0.2164017208595075,0.21156515805945203,0.21479055099070007,0.19687183042467005,0.19354227131578175,0.16260566249639502,0.1592754522911475,0.15758875332666866,0.15755804910662902,0.16244205609771997,0.14140498345511526,0.13017415671285826,0.11577088077825769,0.10145091422177764,0.09533996811966014,0.08283409994606107,0.07043452636941645,0.04028939308675388,0.03461638039804374,0.02095148630017111,0.02202989112351203,0.007010825479011919,0.016487869777492566,0.042349255773830904,0.08460068505052455,0.14811817880397396,0.19231904253212478,0.20746653975651286,0.2260342441917029,0.23503639952453126,0.24908579697830976,0.2551943748866562,0.24849037842117278,0.23059481859516315,0.21449203714379583,0.21478873328154047,0.20712628288122695,0.20448572830007883,0.1873768671960268,0.18663729885357136,0.18439837207105966,0.188766669714647,0.18511870631111346,0.18155919890140557,0.18619193893293798,0.17789662189604039,0.18425732592316527,0.18902245742201962,0.18568056423404447,0.1709662699951814,0.16758943719285327,0.18040045849579991,0.19801378409163609,0.2236545562462291,0.24918235398276842,0.3135374412000855,0.46215287769881735,0.6706492060964567,0.9454913568605922,0.26708230066783084,-0.3499211211594357,-0.3486933505674018,0.023986738574263304,0.17394216123789744,0.22296392240885976,0.24738386466667361,0.24073368264816106,0.22901404313869866,0.22685983608149227,0.23104619136219914,0.23185306275372022,0.22280626970478748,0.21366557693275806,0.20769559331006485,0.20815985938125597,0.20533279358576154,0.19922883628407798,0.1768733175455822,0.1561372699099538,0.13378520565616378,0.11956894000398485,0.09401643108607077,0.0814898214320106,0.06413951170099626,0.0,0.0,0.0,0.0,0.0,0.0,0.0,0.0,0.0,0.0,0.0,0.0,0.0,0.0,0.0,0.0,0.0,0.0,0.0,0.0,0.0,0.0,0.0,0.0,0.0,0.0,0.0,0.0,0.0,0.0,0.0,0.0,0.0,0.0,0.0,0.0,0.0,0.0,0.0,0.0,0.0,0.0,0.0,0.0,0.0,0.0,0.0,0.0,0.0,0.0,0.0,0.0,0.0,0.0,0.0,0.0
0.46215287769881735,0.6706492060964567,0.9454913568605922,0.26708230066783084,-0.3499211211594357,-0.3486933505674018,0.023986738574263304,0.17394216123789744,0.22296392240885976,0.24738386466667361,0.24073368264816106,0.22901404313869866,0.22685983608149227,0.23104619136219914,0.23185306275372022,0.22280626970478748,0.21366557693275806,0.20769559331006485,0.20815985938125597,0.20533279358576154,0.19922883628407798,0.1768733175455822,0.1561372699099538,0.13378520565616378,0.11956894000398485,0.09401643108607077,0.0814898214320106,0.06413951170099626,0.08256187142529338,0.0913068954097317,0.09687650015838892,0.08141948883995685,0.08066002520262568,0.09298112546908126,0.1054008293881258,0.11954830588347942,0.1516637909552602,0.164411077900058,0.1918876616448398,0.21623788055257812,0.22772266581490644,0.25394260786211553,0.26242727173559216,0.2629162245519255,0.2602771899311643,0.2577530664588402,0.26345598269471715,0.26276763208571197,0.2589270057861608,0.25192476020545146,0.24499727802473079,0.24787372411491995,0.24268236065285345,0.22940882543407812,0.21777860556270073,0.20290444701815566,0.19613311142078846,0.2136808772288912,0.2100696450062302,0.21612523822169935,0.25780189863578556,0.3220885365013309,0.4657837225576219,0.5963214553890231,0.5691810701526808,-0.3478718637301308,-0.24075258371141567,-0.021874978774920253,0.17078441985995696,0.23821540997825488,0.24700500168909176,0.23289231541005173,0.23810927834728582,0.23182868284264224,0.23679797565357616,0.23517568305928102,0.2318482936965867,0.21059548442978662,0.21039512829709858,0.21177766903713716,0.20663707158663294,0.1884897524473652,0.1654626890163004,0.1326938326144911,0.116167005864029,0.1110186693033586,0.10102012946213741,0.08455373185722145,0.06487184826500109,0.05821451132035853,0.07595089793875281,0.08074458036126907,0.06772896014238111,0.05314267100778148,0.0,0.0,0.0,0.0,0.0,0.0,0.0,0.0,0.0,0.0,0.0,0.0,0.0,0.0,0.0,0.0,0.0,0.0,0.0,0.0,0.0,0.0,0.0,0.0,0.0,0.0,0.0,0.0,0.0,0.0,0.0,0.0,0.0,0.0,0.0,0.0,0.0,0.0,0.0,0.0,0.0,0.0,0.0,0.0,0.0,0.0,0.0,0.0,0.0,0.0,0.0,0.0,0.0,0.0,0.0,0.0
0.5963214553890231,0.5691810701526808,-0.3478718637301308,-0.24075258371141567,-0.021874978774920253,0.17078441985995696,0.23821540997825488,0.24700500168909176,0.23289231541005173,0.23810927834728582,0.23182868284264224,0.23679797565357616,0.23517568305928102,0.2318482936965867,0.21059548442978662,0.21039512829709858,0.21177766903713716,0.20663707158663294,0.1884897524473652,0.1654626890163004,0.1326938326144911,0.116167005864029,0.1110186693033586,0.10102012946213741,0.08455373185722145,0.06487184826500109,0.05821451132035853,0.07595089793875281,0.08074458036126907,0.06772896014238111,0.05314267100778148,0.045106455771392426,0.04037621836002384,0.06006029396911519,0.08792607548495418,0.10774065549235873,0.1341173855602533,0.17192801583392148,0.20493798997759802,0.2266529547358019,0.23544806352328382,0.22482680512983905,0.22238521062621705,0.20701287334732443,0.2192916719309831,0.21537990637416488,0.2050106251774809,0.19466877903522264,0.23142605492340332,0.3152713633257176,0.4786626666634635,0.6225520042762158,0.5618429681603387,-0.11910244682976041,-0.24001427936830178,-0.07365310918460602,0.1315959421494552,0.19878921005671485,0.2091205340699266,0.20157148798755226,0.200511005924838,0.19946031552510576,0.20492772550379898,0.1925738486602992,0.17539901358342028,0.16315556508594498,0.1720890127991637,0.1729857578815119,0.15611346648708782,0.14745616981586626,0.13403286761903568,0.12883798962123802,0.12700668039544405,0.10743833579073728,0.08637245705085907,0.0524483305201753,0.04138661382919011,0.041825899218331415,0.035910530181382065,0.03663133969711288,0.03749685575091683,0.0531210590656093,0.08512965925257551,0.12378352714414796,0.1512255556573933,0.18531524876640829,0.2228057184233905,0.26369617091108155,0.2657734266953891,0.27611606269803146,0.2719903774776551,0.2566374562668955,0.25115563933383384,0.2474187955981792,0.0,0.0,0.0,0.0,0.0,0.0,0.0,0.0,0.0,0.0,0.0,0.0,0.0,0.0,0.0,0.0,0.0,0.0,0.0,0.0,0.0,0.0,0.0,0.0,0.0,0.0,0.0,0.0,0.0,0.0,0.0,0.0,0.0,0.0,0.0,0.0,0.0,0.0,0.0,0.0,0.0,0.0,0.0,0.0,0.0,0.0,0.0,0.0,0.0,0.0,0.0,0.0,0.0,0.0,0.0,0.0
0.6225520042762158,0.5618429681603387,-0.11910244682976041,-0.24001427936830178,-0.07365310918460602,0.1315959421494552,0.19878921005671485,0.2091205340699266,0.20157148798755226,0.200511005924838,0.19946031552510576,0.20492772550379898,0.1925738486602992,0.17539901358342028,0.16315556508594498,0.1720890127991637,0.1729857578815119,0.15611346648708782,0.14745616981586626,0.13403286761903568,0.12883798962123802,0.12700668039544405,0.10743833579073728,0.08637245705085907,0.0524483305201753,0.04138661382919011,0.041825899218331415,0.035910530181382065,0.03663133969711288,0.03749685575091683,0.0531210590656093,0.08512965925257551,0.12378352714414796,0.1512255556573933,0.18531524876640829,0.2228057184233905,0.26369617091108155,0.2657734266953891,0.27611606269803146,0.2719903774776551,0.2566374562668955,0.25115563933383384,0.2474187955981792,0.23405251729465631,0.23702189999207188,0.23033853448804073,0.23834165052588904,0.220428908020514,0.21879580830164955,0.23017845785945984,0.23994729603131004,0.23996565307585146,0.23346023268901278,0.23826813281900225,0.23975507504498642,0.2557557986733459,0.2586455515400565,0.3539261598804011,0.5431934876846944,0.5861385717567594,0.0736046457800137,-0.343415661188761,-0.34187919970158154,0.05385856715105173,0.2041641929663186,0.27141812602515414,0.2751308738888646,0.27539934836297375,0.2706256883696671,0.2592106558343881,0.2525417431812898,0.25388759451427606,0.25190399714798994,0.24498653167946502,0.2282824982789615,0.22616116034517136,0.22402638898284125,0.2186454976646733,0.21165521109160648,0.19495009801672766,0.18964685707815865,0.18276749264225897,0.16295657129449653,0.16269252802451167,0.15275958581011942,0.14128189459455467,0.1380063509765171,0.139691061518082,0.139846421842782,0.14821723365278142,0.15506547397740827,0.1490288683064288,0.1690731908574502,0.19571709438155765,0.0,0.0,0.0,0.0,0.0,0.0,0.0,0.0,0.0,0.0,0.0,0.0,0.0,0.0,0.0,0.0,0.0,0.0,0.0,0.0,0.0,0.0,0.0,0.0,0.0,0.0,0.0,0.0,0.0,0.0,0.0,0.0,0.0,0.0,0.0,0.0,0.0,0.0,0.0,0.0,0.0,0.0,0.0,0.0,0.0,0.0,0.0,0.0,0.0,0.0,0.0,0.0,0.0,0.0,0.0,0.0
0.5431934876846944,0.5861385717567594,0.0736046457800137,-0.343415661188761,-0.34187919970158154,0.05385856715105173,0.2041641929663186,0.27141812602515414,0.2751308738888646,0.27539934836297375,0.2706256883696671,0.2592106558343881,0.2525417431812898,0.25388759451427606,0.25190399714798994,0.24498653167946502,0.2282824982789615,0.22616116034517136,0.22402638898284125,0.2186454976646733,0.21165521109160648,0.19495009801672766,0.18964685707815865,0.18276749264225897,0.16295657129449653,0.16269252802451167,0.15275958581011942,0.14128189459455467,0.1380063509765171,0.139691061518082,0.139846421842782,0.14821723365278142,0.15506547397740827,0.1490288683064288,0.1690731908574502,0.19571709438155765,0.2533131685055174,0.2996490956814736,0.3152404381432425,0.3163184898538281,0.32073647902743724,0.3203698850315251,0.3184571567249087,0.30687056794322276,0.28397484204989365,0.27410933530981024,0.27563581685934874,0.27717362256784495,0.26896422057894426,0.2656003499690876,0.2556972377393105,0.2522214396898072,0.2567736599608257,0.2693298311320215,0.26064141375365973,0.24529330396848556,0.2346220738053873,0.25944519426746043,0.443119059090884,0.5989082681876292,0.49786393408613,-0.09221284613330882,-0.3173949713895268,-0.3189584883114479,0.13850513418167357,0.22216484989378021,0.23239921657209284,0.23092964449067793,0.2275240474189138,0.22545514266438058,0.22799450991442138,0.218930476139939,0.21127341650037695,0.1953034651552832,0.19052288805821355,0.19208031784448937,0.1853823718146282,0.16395225913452785,0.14566491885913557,0.1305358552947701,0.12020335487654943,0.10331696773316386,0.08800776841725634,0.07266525217626761,0.04106688013825117,0.033812615973786396,0.02169126852311373,0.017702749351635395,0.007247183860714434,0.001700776192269552,-0.0037954102816389126,0.005381804747895192,0.03086787852660357,0.0645571786708307,0.0,0.0,0.0,0.0,0.0,0.0,0.0,0.0,0.0,0.0,0.0,0.0,0.0,0.0,0.0,0.0,0.0,0.0,0.0,0.0,0.0,0.0,0.0,0.0,0.0,0.0,0.0,0.0,0.0,0.0,0.0,0.0,0.0,0.0,0.0,0.0,0.0,0.0,0.0,0.0,0.0,0.0,0.0,0.0,0.0,0.0,0.0,0.0,0.0,0.0,0.0,0.0,0.0,0.0,0.0,0.0
0.5989082681876292,0.49786393408613,-0.09221284613330882,-0.3173949713895268,-0.3189584883114479,0.13850513418167357,0.22216484989378021,0.23239921657209284,0.23092964449067793,0.2275240474189138,0.22545514266438058,0.22799450991442138,0.218930476139939,0.21127341650037695,0.1953034651552832,0.19052288805821355,0.19208031784448937,0.1853823718146282,0.16395225913452785,0.14566491885913557,0.1305358552947701,0.12020335487654943,0.10331696773316386,0.08800776841725634,0.07266525217626761,0.04106688013825117,0.033812615973786396,0.02169126852311373,0.017702749351635395,0.007247183860714434,0.001700776192269552,-0.0037954102816389126,0.005381804747895192,0.03086787852660357,0.0645571786708307,0.07561477211001368,0.0981458211234526,0.11592628586137564,0.13708429254581403,0.1486417518732487,0.15385499365263702,0.13974449995023785,0.12417668217182595,0.12014672164049472,0.11629652199501786,0.10776142795413655,0.09454673411416367,0.08477474853124185,0.08169677516766144,0.07719912093821252,0.07453225744756689,0.0736992493980036,0.06171470520336317,0.05806307384911725,0.04975828667933325,0.0546606833371936,0.053289614246387416,0.060257876048459176,0.0447197062418526,0.04726350098496312,0.04678403560868637,0.051399037287503446,0.04974387383499042,0.04993578151026388,0.05035068513270775,0.03799968666904098,0.04048139766740462,0.05617105151641592,0.06071453285018898,0.05248659179509504,0.044473268985386276,0.05615438443593152,0.06966879536719464,0.06553156777432345,0.06971571200351825,0.054618065781141485,0.06731659911111532,0.07208997578394366,0.08192183660895204,0.0773252528777089,0.07940064760744732,0.08651891084162122,0.0889329833534769,0.08825994649546377,0.10559856239584137,0.10684779646774369,0.09849384746634053,0.1048809948951523,0.10814175400022043,0.12287832469049007,0.13446917800504593,0.12504514968456149,0.12219469581884936,0.13889405319142864,0.0,0.0,0.0,0.0,0.0,0.0,0.0,0.0,0.0,0.0,0.0,0.0,0.0,0.0,0.0,0.0,0.0,0.0,0.0,0.0,0.0,0.0,0.0,0.0,0.0,0.0,0.0,0.0,0.0,0.0,0.0,0.0,0.0,0.0,0.0,0.0,0.0,0.0,0.0,0.0,0.0,0.0,0.0,0.0,0.0,0.0,0.0,0.0,0.0,0.0,0.0,0.0,0.0,0.0,0.0,0.0
0.2541063220270886,0.3725957625162055,0.5718967553720846,0.6766365588187843,0.3880527771386486,-0.3425997587461102,-0.3415647867715521,-0.07155203491771654,0.10054833424034054,0.1634017448641472,0.1884721514966494,0.19202333625667592,0.1984356911692674,0.1898773763545414,0.1793622583686439,0.1750327230206572,0.178536217494796,0.17528420927772065,0.168545888162337,0.1518485048001411,0.13982410300730874,0.13249237327694663,0.13798985924861573,0.13198223303213244,0.12747521721607655,0.10825068631677232,0.0954306179025177,0.09065432284745217,0.09069010351244375,0.08094123581298894,0.07116319901497527,0.056499473597565956,0.0548223305714438,0.05802759119562098,0.05314027125727497,0.04342020093956641,0.040244496991269106,0.03226091271263732,0.029222636075561036,0.05387077737451779,0.06238237220165452,0.066133542210624,0.074876586689824,0.09349294289975948,0.11387559009085062,0.1344110818623788,0.14049731880852356,0.13863716536217613,0.1304622521094517,0.13059160007779005,0.1276674107290677,0.12169580574091812,0.11105875800052724,0.09089061100926439,0.0871718515891932,0.08204772986768662,0.09500380054091939,0.08870234219763014,0.08587504518312936,0.07678294726313828,0.06954527181548521,0.07552787921004993,0.08174362528944441,0.0752049882568846,0.05753563167800524,0.05633501034780218,0.06348506140844684,0.06762041942027111,0.07361050605223884,0.06197174807030813,0.05867849688293624,0.06372862678553748,0.07387269777425388,0.07936690938851783,0.07696113361784847,0.07476941879097534,0.07928191797756601,0.079129795412861,0.08891998617681347,0.09078882063252143,0.09284835179745435,0.08535156375764565,0.09426820633203568,0.10335633079350427,0.11260862160783873,0.11227618373880872,0.10559764273422724,0.11204616729492763,0.11213014725207558,0.12694517354084806,0.1288809628438684,0.1357848898129217,0.14277453834746395,0.15146085523607758,0.0,0.0,0.0,0.0,0.0,0.0,0.0,0.0,0.0,0.0,0.0,0.0,0.0,0.0,0.0,0.0,0.0,0.0,0.0,0.0,0.0,0.0,0.0,0.0,0.0,0.0,0.0,0.0,0.0,0.0,0.0,0.0,0.0,0.0,0.0,0.0,0.0,0.0,0.0,0.0,0.0,0.0,0.0,0.0,0.0,0.0,0.0,0.0,0.0,0.0,0.0,0.0,0.0,0.0,0.0,0.0
0.24190384091022957,0.36456069361136406,0.5729754325941292,0.6771659553868938,0.3637605001829265,-0.32669080181440907,-0.3243340107525112,-0.07564291462251746,0.09632630477339335,0.18348567966835017,0.21184048018522997,0.20577154856511737,0.20102324102045346,0.20736271765163378,0.20208592437497047,0.20469904208142894,0.20061352171108052,0.19959244750969488,0.19191577521470593,0.18734458804203705,0.1956390096287353,0.18597046555405972,0.17134418544385674,0.15015287499109953,0.14838806087553055,0.13359414269033645,0.12039658123682286,0.11043208571843051,0.09721921108872447,0.07102893923405322,0.056225485465981856,0.052820053150470586,0.03971792863193137,0.02504732231560084,0.008818693750102562,-0.0008400704855817952,-0.013659742893272523,0.004463766073541845,0.009707341874040109,0.036176349411478265,0.05303568691664644,0.08464942715398059,0.12615818954839156,0.16458461801068475,0.18045668384714225,0.1965128072291976,0.20139678652359272,0.20485707342715437,0.21339409174598864,0.21889564692028934,0.2116249669663975,0.20944386313011581,0.20423692127810966,0.20574629504506153,0.21884258552086566,0.2207956873562445,0.2148505682432954,0.21074513370925432,0.2117221732149403,0.21290587022853413,0.22403094368789558,0.23047839120062452,0.22899266339335972,0.23092865258132922,0.23789904339608037,0.23690377174535238,0.23929424084257578,0.2353150334882016,0.276902933240445,0.5215217265529577,1.0,0.3631798471623761,-0.28984787466109396,0.0,0.0,0.0,0.0,0.0,0.0,0.0,0.0,0.0,0.0,0.0,0.0,0.0,0.0,0.0,0.0,0.0,0.0,0.0,0.0,0.0,0.0,0.0,0.0,0.0,0.0,0.0,0.0,0.0,0.0,0.0,0.0,0.0,0.0,0.0,0.0,0.0,0.0,0.0,0.0,0.0,0.0,0.0,0.0,0.0,0.0,0.0,0.0,0.0,0.0,0.0,0.0,0.0,0.0,0.0,0.0,0.0,0.0,0.0,0.0,0.0,0.0,0.0,0.0,0.0,0.0,0.0,0.0,0.0,0.0,0.0,0.0,0.0,0.0,0.0,0.0,0.0
0.158735448158489,0.18058619382535593,0.20432585316958413,0.2520354219327362,0.2845964443160187,0.284988637366978,0.2939888122891902,0.2758743179541822,0.25101959404125174,0.22279813699391499,0.22178149034042466,0.1816425695924558,0.19584908167763346,0.23377100910213555,0.2647773551267315,0.3330340351595885,0.552403852565284,0.7324557523691883,0.5909582727107736,0.005472189774152585,-0.3491651298173368,-0.3455023032282771,0.050447621811027375,0.18592204017573502,0.2020377269606469,0.23311070210468632,0.2383604675569674,0.23990374601060283,0.24115654810575657,0.2625332488280542,0.24794897999151802,0.23311520561056123,0.233342673317667,0.21464222996313426,0.20932185475424317,0.17149045991184209,0.1742528580968475,0.1666161883092768,0.11798619492188685,0.11336482350299631,0.10345687516283476,0.08996527578008927,0.06609265201697505,0.053940439278454114,0.0280109636864917,0.012105016867012404,0.00792381736767287,-0.008330822585242101,-0.0349577845882473,-0.04135590024058613,-0.054719197290217805,-0.03423951921781178,-0.010501679409899744,0.014812020070438218,0.04342018759250447,0.06854157553340502,0.09699437026066103,0.12539667711540112,0.1503661164669025,0.13962042313193088,0.14247448664478957,0.14704406852657617,0.15674382540372753,0.15798811481814592,0.16438981277531364,0.14366218290682095,0.1366157915112185,0.13476175136998655,0.133010404958486,0.1347712028754167,0.12645336680326183,0.10976505204626275,0.09831347634676071,0.09550557030332171,0.0,0.0,0.0,0.0,0.0,0.0,0.0,0.0,0.0,0.0,0.0,0.0,0.0,0.0,0.0,0.0,0.0,0.0,0.0,0.0,0.0,0.0,0.0,0.0,0.0,0.0,0.0,0.0,0.0,0.0,0.0,0.0,0.0,0.0,0.0,0.0,0.0,0.0,0.0,0.0,0.0,0.0,0.0,0.0,0.0,0.0,0.0,0.0,0.0,0.0,0.0,0.0,0.0,0.0,0.0,0.0,0.0,0.0,0.0,0.0,0.0,0.0,0.0,0.0,0.0,0.0,0.0,0.0,0.0,0.0,0.0,0.0,0.0,0.0,0.0,0.0
0.5940246419903471,0.06904185875118145,-0.21481116381959298,-0.1385724003029375,-0.22584293228569563,0.18125901158463958,0.23787521214459806,0.2517169739278474,0.2585013902649274,0.2616451245595442,0.26116363493561395,0.26047098406426866,0.2680797979577228,0.2687020108634022,0.26744769326677287,0.2694255721432464,0.25254373504706107,0.25760730870210335,0.24552220695188404,0.25369109299223236,0.25321710333759534,0.24750127738891917,0.2280436937566988,0.2339419723647789,0.22099472998399577,0.2095977563592523,0.20654608517044784,0.17273487967538198,0.16255587165448268,0.15900176098417426,0.15526417308003754,-0.1818576878436318,0.13360076196787052,0.11907188727619782,0.11455345347330587,-0.18594079624756987,0.15937029617120801,0.18493448760061368,0.20186598426093574,0.24248522032728068,0.2847130162794203,0.3149687621031203,0.3383699444696764,0.3464328241152196,0.3357718390854165,0.34039873576303475,0.3433248900790716,0.34965940899429443,0.34411020620799043,0.34368261846436576,0.3296811778417926,0.32590760766603055,0.3306626370606617,0.3286457145198767,0.31815428631603393,0.30938385019785347,0.3142282695290427,0.3003809947071597,0.30523211683160045,0.2913721440943442,0.29618813952922923,0.29416732301186377,0.28699473565986533,0.2950534680048468,0.2894264403985868,0.2921937895180986,0.29143507717981,0.29732783725465006,0.49344369785291714,0.6740627879557337,0.4022687007727257,-0.2641710323524429,-0.2679165362051413,-0.12916236591965322,0.0,0.0,0.0,0.0,0.0,0.0,0.0,0.0,0.0,0.0,0.0,0.0,0.0,0.0,0.0,0.0,0.0,0.0,0.0,0.0,0.0,0.0,0.0,0.0,0.0,0.0,0.0,0.0,0.0,0.0,0.0,0.0,0.0,0.0,0.0,0.0,0.0,0.0,0.0,0.0,0.0,0.0,0.0,0.0,0.0,0.0,0.0,0.0,0.0,0.0,0.0,0.0,0.0,0.0,0.0,0.0,0.0,0.0,0.0,0.0,0.0,0.0,0.0,0.0,0.0,0.0,0.0,0.0,0.0,0.0,0.0,0.0,0.0,0.0,0.0,0.0
0.6740627879557337,0.4022687007727257,-0.2641710323524429,-0.2679165362051413,-0.12916236591965322,0.08921064338743366,0.263135497113204,0.2974440131706511,0.2822619399149722,0.2720144543664957,0.2735265434161136,0.28512205195035045,0.2830240241995643,0.2587536862616259,0.2344300640698296,0.2151713259248469,0.2145942499091244,0.2038156285879995,0.19815004760245833,0.18061190217338002,0.15971394256769314,0.1473679287656536,0.13678530192719343,0.12287672275901995,0.10565203720058827,0.08512047680773946,0.05959078848970943,0.047770770190380105,0.034368794171307365,0.017692644931549838,0.0028497606718716,-0.0067524652566070785,0.002493084566945617,0.020394779637692595,0.043560802531050706,0.0651993210757,0.08871802361482288,0.11752427249499625,0.14142533538132543,0.15532776147681066,0.15583734924419437,0.16165855353086062,0.14559622756412968,0.12805319509829094,0.1209317699743998,0.1208340182897639,0.11586161955074482,0.11111521295780453,0.10149512008479218,0.09380080163442597,0.09993107999308133,0.10968487551967612,0.09926095782637495,0.09075637053428222,0.1079676173461323,0.13559175129516596,0.15152546003086043,0.14726440433528992,0.14660265870519248,0.13593452081406282,0.13735263943690462,0.15254950703908723,0.1679173218450103,0.16984751933153827,0.18382969227656712,0.2098532384241085,0.2581063746882276,0.28947753351064176,0.28355337705180544,0.262418029744985,0.23115463439236938,0.19824493447883768,0.177269386875354,0.16480789336401835,0.0,0.0,0.0,0.0,0.0,0.0,0.0,0.0,0.0,0.0,0.0,0.0,0.0,0.0,0.0,0.0,0.0,0.0,0.0,0.0,0.0,0.0,0.0,0.0,0.0,0.0,0.0,0.0,0.0,0.0,0.0,0.0,0.0,0.0,0.0,0.0,0.0,0.0,0.0,0.0,0.0,0.0,0.0,0.0,0.0,0.0,0.0,0.0,0.0,0.0,0.0,0.0,0.0,0.0,0.0,0.0,0.0,0.0,0.0,0.0,0.0,0.0,0.0,0.0,0.0,0.0,0.0,0.0,0.0,0.0,0.0,0.0,0.0,0.0,0.0,0.0
0.9537023826564796,0.22123227700979403,-0.23609169693333018,-0.2483110153980867,-0.06703390973041326,0.08845414961217969,0.1365705276935588,0.16062791678950186,0.17084020170712375,0.17742046411395523,0.17528132399874605,0.16443438340718283,0.1584900190696857,0.16595791638550017,0.17154757889390787,0.15996768034460854,0.1618248591827248,0.14652652410388745,0.13957783543126367,0.14268383144553198,0.132049506741906,0.12127818299766364,0.09677321945984246,0.07213667116727142,0.06946989122477805,0.061575136847678125,0.0467536636981186,0.014806637630466411,0.004833725936925777,-0.010363777193835064,-0.015485692081298226,-0.02243015666881904,-0.036294012213328515,-0.04177249246984389,-0.0388569907399947,-0.012235324460853205,0.009209514297730518,0.04759438741430505,0.07403741912727262,0.0953555798179008,0.12176538245319958,0.14648329935808832,0.1610252376441548,0.15690637200649,0.1545403305831226,0.152240523956772,0.1466196336220856,0.14448931818960578,0.14246076485319187,0.13544448197369285,0.12515009115381,0.12518623147876895,0.11686174494137515,0.11888388810449842,0.11086033633464293,0.10129742914799811,0.09530103898623343,0.08607683709893833,0.09232936402679483,0.09026382026582017,0.08328424684791808,0.06969436432663333,0.07159686624414484,0.07369505716958819,0.074291534779121,0.07508844104645339,0.06588785178268736,0.06029085676658801,0.06679834717840401,0.07011152333423175,0.0719308154226234,0.06375656475599942,0.05238836047047555,0.06162503678353549,0.0,0.0,0.0,0.0,0.0,0.0,0.0,0.0,0.0,0.0,0.0,0.0,0.0,0.0,0.0,0.0,0.0,0.0,0.0,0.0,0.0,0.0,0.0,0.0,0.0,0.0,0.0,0.0,0.0,0.0,0.0,0.0,0.0,0.0,0.0,0.0,0.0,0.0,0.0,0.0,0.0,0.0,0.0,0.0,0.0,0.0,0.0,0.0,0.0,0.0,0.0,0.0,0.0,0.0,0.0,0.0,0.0,0.0,0.0,0.0,0.0,0.0,0.0,0.0,0.0,0.0,0.0,0.0,0.0,0.0,0.0,0.0,0.0,0.0,0.0,0.0
0.650276984955496,0.18370327973270126,-0.3886380311715626,-0.206606127058192,-0.02158192094049363,0.1205552021142515,0.17052799454841336,0.19465564030485485,0.1946581280025375,0.19775381877850878,0.1903611472051161,0.182696948495481,0.17987723689773166,0.1836172004024155,0.18373143290896088,0.17003361023079447,0.15953579170688453,0.1590494481896332,0.15328581982903478,0.15925452286980663,0.14806558469424935,0.1282272769132709,0.11164704358269396,0.09323212375776489,0.08658871850912289,0.07302339140482408,0.06784140079771529,0.04724864303604546,0.02824962853511935,0.019348849534930778,0.012051093163139162,0.002960918962413749,-0.011317173780042223,-0.027378875035943606,-0.038418886872657605,-0.025729615659488825,-0.021598509564064,-0.007311880847947171,0.0018468823573231535,0.034793952595787346,0.05754710687956484,0.095622421775683,0.11333725620454456,0.12260726979418017,0.1370475118727586,0.13797324739013528,0.14239814017340874,0.14013586200073397,0.14309880568301409,0.13429940478271638,0.12734859232382462,0.12225697874194513,0.1309342324346568,0.11939058808132698,0.10803423005557436,0.10197313830030481,0.1012148834280163,0.10236661341267692,0.10883479569951421,0.09852604010440116,0.08164558361119632,0.0819978216649111,0.07578796266290208,0.08171971467389683,0.07599749716633028,0.0671244923520282,0.07550319716026462,0.07053708130527675,0.0794277541235677,0.09367738815143148,0.0894881513086189,0.09236047833409577,0.07849562131991551,0.07509306214831482,0.0,0.0,0.0,0.0,0.0,0.0,0.0,0.0,0.0,0.0,0.0,0.0,0.0,0.0,0.0,0.0,0.0,0.0,0.0,0.0,0.0,0.0,0.0,0.0,0.0,0.0,0.0,0.0,0.0,0.0,0.0,0.0,0.0,0.0,0.0,0.0,0.0,0.0,0.0,0.0,0.0,0.0,0.0,0.0,0.0,0.0,0.0,0.0,0.0,0.0,0.0,0.0,0.0,0.0,0.0,0.0,0.0,0.0,0.0,0.0,0.0,0.0,0.0,0.0,0.0,0.0,0.0,0.0,0.0,0.0,0.0,0.0,0.0,0.0,0.0,0.0
0.2753907936424116,0.5332418469797525,1.0,0.5978602526355054,0.010167421148877864,-0.24123252420835772,-0.3382756079993177,0.01141289411362923,0.1635638737339128,0.1861898913101235,0.20000133745047718,0.2152105066964873,0.22162921694595003,0.22606777390831947,0.22173572405561193,0.22564087293084234,0.21059105135150677,0.21909117377392262,0.2290467590152219,0.22006218682308704,0.21593955775830337,0.1945810496374045,0.2018860160359019,0.20215493107593813,0.18348664885944435,0.1747779659877559,0.14882620087713108,0.13452635880583094,0.11657383487421341,0.09666291541503395,0.07138743473261602,0.06624000238583182,0.0336147463803552,0.026202890320578952,-0.3129939993898557,-0.003108811249873912,-0.013094674551244285,-0.01653765679726078,-0.016814120462453522,0.003100619693073173,0.03983336961362888,0.07641126864907141,0.09586125698241026,0.11860893324153352,0.14128002733817577,0.15539980698014777,0.18649196120350692,0.19888097213418549,0.19768934271236943,0.1999382761783185,0.19714864152929115,0.20973956664029084,0.21733024036905318,0.19443893371622292,0.19548078119294401,0.19327203856757158,0.17932750445516568,0.1791601388389768,0.18428287733634985,0.1794079342182588,0.15774638427338658,0.15670727129764353,0.16270015876244337,0.1536340446707476,0.15671584873087954,0.14135320534268742,0.13815139523786585,0.14031595188086082,0.1512514562976573,0.148862442138193,0.13825198897783117,0.13302221401181974,0.1348748484705277,0.13871113292757717,0.0,0.0,0.0,0.0,0.0,0.0,0.0,0.0,0.0,0.0,0.0,0.0,0.0,0.0,0.0,0.0,0.0,0.0,0.0,0.0,0.0,0.0,0.0,0.0,0.0,0.0,0.0,0.0,0.0,0.0,0.0,0.0,0.0,0.0,0.0,0.0,0.0,0.0,0.0,0.0,0.0,0.0,0.0,0.0,0.0,0.0,0.0,0.0,0.0,0.0,0.0,0.0,0.0,0.0,0.0,0.0,0.0,0.0,0.0,0.0,0.0,0.0,0.0,0.0,0.0,0.0,0.0,0.0,0.0,0.0,0.0,0.0,0.0,0.0,0.0,0.0
0.7067899898249662,0.6586971156620604,0.10711465049608977,-0.167721614011834,-0.26955374271181914,-0.2664087827858399,0.19530101002164102,0.24522009057872446,0.25905996849371127,0.27083969360419646,0.2805778927195495,0.286591882064252,0.27189796749554995,0.2790094954359493,0.2790402845885134,0.26860210440511584,0.2715046313189142,0.26905728909206444,0.2442681003499852,0.24134217234273928,0.23818509190954026,0.24330045413428492,0.22439170990135007,0.20695961073109334,0.18420461484335873,0.16292579675129004,0.14992130994495662,0.13498892942125237,0.10792568057052147,0.07552747770265218,0.05988930297690224,0.045706720413919155,0.03127464567918871,0.00978789674533692,-0.3043517121609822,-0.00677294525918102,-0.005229161278849374,0.006295784383508635,0.0380261218647753,0.06448696570810844,0.0823026733495055,0.11869649474568052,0.1396928384288904,0.15551438549581695,0.17298320580611115,0.1751212022376281,0.17554862770773877,0.17428520843644946,0.1832494876055619,0.17866005285603329,0.17583357246902356,0.1628865192427214,0.16193361453583657,0.1542898120004224,0.15526838334884283,0.14958261388885669,0.1440444456097553,0.13016546510998783,0.12665584094848203,0.11992591951487604,0.11678489055663299,0.10874173671384602,0.09750459502067027,0.09158088434825408,0.0892777977262557,0.09910180859842642,0.09725977267756482,0.08545739596371396,0.11299867697779013,0.13738954208709464,0.13313491652973566,0.1427372940528774,0.1373003344994966,0.13382580645941694,0.0,0.0,0.0,0.0,0.0,0.0,0.0,0.0,0.0,0.0,0.0,0.0,0.0,0.0,0.0,0.0,0.0,0.0,0.0,0.0,0.0,0.0,0.0,0.0,0.0,0.0,0.0,0.0,0.0,0.0,0.0,0.0,0.0,0.0,0.0,0.0,0.0,0.0,0.0,0.0,0.0,0.0,0.0,0.0,0.0,0.0,0.0,0.0,0.0,0.0,0.0,0.0,0.0,0.0,0.0,0.0,0.0,0.0,0.0,0.0,0.0,0.0,0.0,0.0,0.0,0.0,0.0,0.0,0.0,0.0,0.0,0.0,0.0,0.0,0.0,0.0
0.614331031752583,0.32331656744895254,-0.1854937726971604,-0.25425228303548636,-0.08527156753544862,0.08006092691277719,0.16016175454133313,0.19074405994064933,0.2024203177331254,0.2054025721838313,0.19970211713773295,0.2057286960639654,0.19799223148776066,0.20710017804270245,0.20416052687654665,0.2010791869102184,0.18426170046572116,0.1792116013567646,0.18423219990584924,0.18232630289969629,0.17009544705538074,0.164539734095493,0.14355941837774724,0.13435266676734298,0.12501793144474696,0.11045281837276857,0.08555430842455992,0.052018655754857764,0.04044094531598258,0.02871735398798191,0.011743420310368185,-0.005385722445601032,-0.022674868885027254,-0.04352821474221807,-0.059448106934002584,-0.053432975264713425,-0.05267446801542305,-0.031660509355559224,-0.014172754586244186,0.01680910201384872,0.059607192327121125,0.098943913099111,0.12804114497149063,0.15711983773055832,0.16410112961492326,0.17280419569732344,0.18664791390781868,0.1920507342912986,0.18902982474443653,0.18270126206949172,0.17818017791959978,0.17038105212307095,0.17121703747151754,0.17220095821426115,0.16824469528827427,0.15255931223931934,0.14725428995880793,0.14893900074530297,0.15252212423949832,0.1495116826142457,0.1416146737502905,0.1373371735156417,0.13158489861358605,0.1362624429257343,0.13947435299933578,0.13442436322868268,0.1279151617276552,0.12844872087473666,0.12922676599482905,0.12685029294206834,0.14001908446020972,0.1364335974489683,0.12969241114595456,0.12829355346153454,0.0,0.0,0.0,0.0,0.0,0.0,0.0,0.0,0.0,0.0,0.0,0.0,0.0,0.0,0.0,0.0,0.0,0.0,0.0,0.0,0.0,0.0,0.0,0.0,0.0,0.0,0.0,0.0,0.0,0.0,0.0,0.0,0.0,0.0,0.0,0.0,0.0,0.0,0.0,0.0,0.0,0.0,0.0,0.0,0.0,0.0,0.0,0.0,0.0,0.0,0.0,0.0,0.0,0.0,0.0,0.0,0.0,0.0,0.0,0.0,0.0,0.0,0.0,0.0,0.0,0.0,0.0,0.0,0.0,0.0,0.0,0.0,0.0,0.0,0.0,0.0
0.7303984594315003,0.4442861875620779,-0.3318605542800767,-0.16672626177323419,-0.32849464547664714,0.16030880950502097,0.23724216135542564,0.2678260313062759,0.27078875154896326,0.27165714069039965,0.2619575356653556,0.2604142173056051,0.2619507672453748,0.26998924697990095,0.26245106245429545,0.251255397395819,0.2398203413443237,0.2332626839490938,0.2298981902120303,0.22464154604877556,0.21410624427044034,0.18470491616189,0.17894768322860088,0.1696455316082827,0.15680785488293542,0.1421431547933202,0.1171594107224087,0.08186367326949429,0.07026153496520028,0.05855966188353169,0.0416638890414299,0.011079845884688225,-0.016187700664057617,-0.02993386462707812,-0.03695178605927223,-0.0304321102070459,-0.017161622988482714,-0.009024088430453828,0.010997618363479266,0.05482161041889865,0.08846712333997682,0.12725185382899015,0.15079397213779572,0.16081044528243052,0.1641173554683283,0.1709298936215347,0.17956273537638376,0.17473005062638808,0.16494450086125167,0.15531796114758706,0.14416165628382566,0.14508564195636567,0.14789986363345556,0.1407135849687147,0.13203480675347432,0.12357100066546393,0.12042889098121777,0.12941454050868556,0.11993436941014066,0.10389306043563278,0.09829456582262201,0.09294301616055957,0.09464161443025916,0.09489349141968109,0.09540104302722843,0.08086662681965553,0.08189094579181908,0.08657538894496236,0.09152071775769545,0.09162730444526446,0.09539471471067995,0.08752266671056157,0.08160966019708142,0.08275397537698188,0.0,0.0,0.0,0.0,0.0,0.0,0.0,0.0,0.0,0.0,0.0,0.0,0.0,0.0,0.0,0.0,0.0,0.0,0.0,0.0,0.0,0.0,0.0,0.0,0.0,0.0,0.0,0.0,0.0,0.0,0.0,0.0,0.0,0.0,0.0,0.0,0.0,0.0,0.0,0.0,0.0,0.0,0.0,0.0,0.0,0.0,0.0,0.0,0.0,0.0,0.0,0.0,0.0,0.0,0.0,0.0,0.0,0.0,0.0,0.0,0.0,0.0,0.0,0.0,0.0,0.0,0.0,0.0,0.0,0.0,0.0,0.0,0.0,0.0,0.0,0.0
0.31528035855360387,0.5383605697093368,0.6865510819208971,0.5694295203395373,-0.0068298354117379495,-0.39627709796645716,-0.12295736976570114,0.041353905442086565,0.15957155059040207,0.2113123189086749,0.230590770133995,0.2429206255097618,0.24491519475639814,0.2416863549232951,0.24514458402954636,0.22300028561557278,0.2296604132062526,0.2566324190275264,0.24272395902427468,0.23213870193727085,0.2316800623862716,0.2226509485012363,0.22205219412661473,0.20268465380521564,0.2002464581163863,0.1722367304409229,0.15605154308903216,0.15508697945888503,0.1387392149625532,0.1070028645327559,0.08537119520242469,0.056838029329689524,0.057095410395698286,0.04533706030258971,0.01135563043099515,0.012941800933011094,-0.30520320671727613,0.015688050947231864,0.05256029193225282,0.09442705932011634,0.14810887324611058,0.16772713373123285,0.19240031957307233,0.22724694320516614,0.2399855145582319,0.25273201169368403,0.2604019105626578,0.25110959791055304,0.2537671117472766,0.26328610680636255,0.27967683814504324,0.2757489422073106,0.2634096539406062,0.25626478593407986,0.2662188773421923,0.25757640717573804,0.26603869158072957,0.2610074597507962,0.262881802278684,0.2546604642186189,0.26183978587629436,0.26911588098102246,0.2679833796088627,0.26353521734782265,0.2676628154146887,0.27185680071313023,0.30500550233396123,0.4503944944494055,0.6383117514264496,0.7259448710435837,0.34268410374037234,-0.17320211663118268,-0.14345579235576422,0.08342387108584713,0.0,0.0,0.0,0.0,0.0,0.0,0.0,0.0,0.0,0.0,0.0,0.0,0.0,0.0,0.0,0.0,0.0,0.0,0.0,0.0,0.0,0.0,0.0,0.0,0.0,0.0,0.0,0.0,0.0,0.0,0.0,0.0,0.0,0.0,0.0,0.0,0.0,0.0,0.0,0.0,0.0,0.0,0.0,0.0,0.0,0.0,0.0,0.0,0.0,0.0,0.0,0.0,0.0,0.0,0.0,0.0,0.0,0.0,0.0,0.0,0.0,0.0,0.0,0.0,0.0,0.0,0.0,0.0,0.0,0.0,0.0,0.0,0.0,0.0,0.0,0.0
0.7259448710435837,0.34268410374037234,-0.17320211663118268,-0.14345579235576422,0.08342387108584713,0.23034946474274992,0.283726402439658,0.2945572889378901,0.3087434412074946,0.30758636074814694,0.3233846969348918,0.3204373057542029,0.32253989979374026,0.3092877234077365,0.30447327429782356,0.291088550452956,0.28612315522410003,0.2691661960182475,0.26910408483276993,0.26212323985506447,0.27030755618542107,0.26134101394251713,0.24540515136772784,0.23098024361093902,0.21804555686418356,0.20317928964543777,0.19145833217698935,0.17605886407974347,0.15015610768294443,-0.20756752646603047,-0.20865628506735628,-0.2101078735539821,0.13318181257934086,0.16336257009853977,0.1915586701194047,0.2552005887313886,0.31181989406889293,0.327446660195471,0.3344077011455534,0.3412288043104014,0.34623434672425557,0.3443470865044965,0.34918757084738167,0.3318757155532572,0.3060286001450937,0.2886615575401226,0.26958908832986744,0.2675235083671896,0.26717665783112543,0.24985912651033096,0.23937907797065203,0.22554429875391863,0.22026081153001983,0.2099341654510631,0.2030682413885476,0.1843664811332765,0.16913052609039128,0.15906144474127415,0.15415950352825764,0.15442417358645036,0.16835393718553907,0.1925468097694082,0.2032004883752262,0.2071109222616574,0.21787287023060103,0.22018079696021894,0.23442716187912416,0.29800288737613656,0.4890966769783265,0.6190025915305177,0.55851071991882,-0.010287102876142455,-0.24423162250305336,-0.14844084415898792,0.0,0.0,0.0,0.0,0.0,0.0,0.0,0.0,0.0,0.0,0.0,0.0,0.0,0.0,0.0,0.0,0.0,0.0,0.0,0.0,0.0,0.0,0.0,0.0,0.0,0.0,0.0,0.0,0.0,0.0,0.0,0.0,0.0,0.0,0.0,0.0,0.0,0.0,0.0,0.0,0.0,0.0,0.0,0.0,0.0,0.0,0.0,0.0,0.0,0.0,0.0,0.0,0.0,0.0,0.0,0.0,0.0,0.0,0.0,0.0,0.0,0.0,0.0,0.0,0.0,0.0,0.0,0.0,0.0,0.0,0.0,0.0,0.0,0.0,0.0,0.0
0.6190025915305177,0.55851071991882,-0.010287102876142455,-0.24423162250305336,-0.14844084415898792,0.05269605511504399,0.1637032587273535,0.2083990604540485,0.208900979168524,0.19412531729454932,0.18618750720532098,0.1766027956919043,0.16538528053992468,0.1644478712259628,0.15340347895823267,0.13906349488829867,0.12653858676391105,0.12433863978818385,0.1392729500848779,0.1611506282203631,0.17468021923700158,0.14586994217340327,0.14102456946581277,0.13635045572054777,0.12845272705810878,0.10883595868746007,0.09960329850947543,0.090558178903271,0.08170327254998519,0.05774119186208935,0.04757300678259031,0.02740085056954129,0.004025833571506746,0.0012484929969896561,0.0071702618105226705,0.031991999757622416,0.05191540300411309,0.07374122271136484,0.10087003769089438,0.11630258141107469,0.15743768735550379,0.18007570094675232,0.1825150900794334,0.18005298613384688,0.19478543346051902,0.20630866648456608,0.24181672452367364,0.25880440350900896,0.2487644180164998,0.2388872727148589,0.24446253374577465,0.24337953231334988,0.24582554865098302,0.255186820548734,0.2663485747368234,0.270794849238531,0.28550769613055,0.28156899108201006,0.2963574812939074,0.3179517709161271,0.4109270197000103,0.5106601122701862,0.5865250063445689,0.1659044458715277,-0.2225474462247108,-0.2830714014815747,0.08291804974627559,0.18015363642956955,0.22284433968304226,0.23650308096071873,0.2432417547220875,0.2549713345927173,0.28530153437582223,0.31044175251672174,0.0,0.0,0.0,0.0,0.0,0.0,0.0,0.0,0.0,0.0,0.0,0.0,0.0,0.0,0.0,0.0,0.0,0.0,0.0,0.0,0.0,0.0,0.0,0.0,0.0,0.0,0.0,0.0,0.0,0.0,0.0,0.0,0.0,0.0,0.0,0.0,0.0,0.0,0.0,0.0,0.0,0.0,0.0,0.0,0.0,0.0,0.0,0.0,0.0,0.0,0.0,0.0,0.0,0.0,0.0,0.0,0.0,0.0,0.0,0.0,0.0,0.0,0.0,0.0,0.0,0.0,0.0,0.0,0.0,0.0,0.0,0.0,0.0,0.0,0.0,0.0
0.5865250063445689,0.1659044458715277,-0.2225474462247108,-0.2830714014815747,0.08291804974627559,0.18015363642956955,0.22284433968304226,0.23650308096071873,0.2432417547220875,0.2549713345927173,0.28530153437582223,0.31044175251672174,0.32019961204441655,0.32478066041617476,0.3207891929998507,0.31332766319209265,0.30239705128432603,0.30839624756669015,0.31092367707000795,0.3031758739352176,0.2817477304577101,0.2704319252362136,0.25562068762958173,0.235604589541976,0.22397253225189248,0.2071129368321727,0.19011262474360746,0.172957512723046,0.15053269778495593,0.146621670725367,0.13230852169782575,0.12627538656726156,-0.2131870142648683,-0.21291462908179642,0.15429341976031619,0.20167655449902078,0.24374773750565942,0.28392690405409393,0.34263233454369024,0.3569830268047547,0.3711935178503282,0.3682781298672279,0.366948413189484,0.3553148618049324,0.3656850010062411,0.3691661496006793,0.38276262040382814,0.40307740376349105,0.46071070394275276,0.5505616257028767,0.686226490502217,0.7725016582601728,0.4778861200514262,-0.24013240986637327,-0.24259891810485468,0.11350280125442268,0.24341784524695084,0.2916720331680387,0.2990926276521996,0.28780591272316985,0.27823672055512827,0.282308662360594,0.28134474321293834,0.27876598966566984,0.2762920651621617,0.2739412829294196,0.2938300077575721,0.30537458675133883,0.2915895489567538,0.2796867625938156,0.26457746659281367,0.2530711961551584,0.23667655611715474,0.22560040620973756,0.0,0.0,0.0,0.0,0.0,0.0,0.0,0.0,0.0,0.0,0.0,0.0,0.0,0.0,0.0,0.0,0.0,0.0,0.0,0.0,0.0,0.0,0.0,0.0,0.0,0.0,0.0,0.0,0.0,0.0,0.0,0.0,0.0,0.0,0.0,0.0,0.0,0.0,0.0,0.0,0.0,0.0,0.0,0.0,0.0,0.0,0.0,0.0,0.0,0.0,0.0,0.0,0.0,0.0,0.0,0.0,0.0,0.0,0.0,0.0,0.0,0.0,0.0,0.0,0.0,0.0,0.0,0.0,0.0,0.0,0.0,0.0,0.0,0.0,0.0,0.0
0.7725016582601728,0.4778861200514262,-0.24013240986637327,-0.24259891810485468,0.11350280125442268,0.24341784524695084,0.2916720331680387,0.2990926276521996,0.28780591272316985,0.27823672055512827,0.282308662360594,0.28134474321293834,0.27876598966566984,0.2762920651621617,0.2739412829294196,0.2938300077575721,0.30537458675133883,0.2915895489567538,0.2796867625938156,0.26457746659281367,0.2530711961551584,0.23667655611715474,0.22560040620973756,0.23514829194031894,0.22112615728960874,0.20223715679436607,0.18698360104204811,0.17536700750223277,0.1775876970450072,0.16984598597703784,0.1708402123269847,0.17376851909729024,0.19902749727204197,0.22451395933225254,0.2706226322819274,0.2948487342577661,0.31418460380797747,0.32862154137290756,0.3415491892427211,0.3410559391221034,0.3509275590845961,0.3490492894907273,0.3507036565644514,0.34907200825982587,0.34583372094472126,0.36136594587757753,0.36334545716923583,0.36364608814770605,0.353740378776682,0.36929791683631563,0.37118844040242094,0.38147827097231757,0.4018323974640934,0.3778153406526486,0.41648546886071697,0.5008024451257299,0.29583200579738966,-0.12027321488696933,-0.20357401197118977,-0.18189995397800213,-0.16066441007681945,-0.10246713248221676,-0.20108667884281795,0.17758688775647383,0.29581780362497684,0.36104516798662833,0.39541135485665785,0.4261568021837121,0.43292119203992707,0.42934120344181037,0.42225152525423315,0.41338483047679103,0.41467141916996864,0.41084022228739114,0.0,0.0,0.0,0.0,0.0,0.0,0.0,0.0,0.0,0.0,0.0,0.0,0.0,0.0,0.0,0.0,0.0,0.0,0.0,0.0,0.0,0.0,0.0,0.0,0.0,0.0,0.0,0.0,0.0,0.0,0.0,0.0,0.0,0.0,0.0,0.0,0.0,0.0,0.0,0.0,0.0,0.0,0.0,0.0,0.0,0.0,0.0,0.0,0.0,0.0,0.0,0.0,0.0,0.0,0.0,0.0,0.0,0.0,0.0,0.0,0.0,0.0,0.0,0.0,0.0,0.0,0.0,0.0,0.0,0.0,0.0,0.0,0.0,0.0,0.0,0.0
0.5008024451257299,0.29583200579738966,-0.12027321488696933,-0.20357401197118977,-0.18189995397800213,-0.16066441007681945,-0.10246713248221676,-0.20108667884281795,0.17758688775647383,0.29581780362497684,0.36104516798662833,0.39541135485665785,0.4261568021837121,0.43292119203992707,0.42934120344181037,0.42225152525423315,0.41338483047679103,0.41467141916996864,0.41084022228739114,0.41381739960829417,0.3981280162095805,0.3977935416058253,0.38563502476043204,0.37357052255673706,0.3684162945436952,0.3633870813262953,0.35339573781447253,0.35715269139262323,0.350867692805975,0.36174739862887384,0.3625981067317876,0.3704231722950895,0.38862448641726577,0.4087023933760068,0.4340549890315051,0.47317819489124374,0.5090664163914732,0.512811998372535,0.5371026468908087,0.5462257718488851,0.5469650072966001,0.5206019103586426,0.4875143002223056,0.4612775675196535,0.436765145060639,0.42074785397231107,0.4046947240782206,0.4072719836453552,0.40124501503376464,0.41887563776825093,0.42102549691893604,0.47735135190857975,0.5708100813250793,0.4004634604675716,-0.12383499749923677,-0.21675624272206978,-0.23193023992373138,-0.17277534638161812,-0.23648291405211902,-0.021843233214169318,0.14989440750198438,0.28217446437931165,0.3699408622966491,0.38943659500989986,0.38490106202742236,0.3954718465153423,0.4041860463826427,0.4025785641111696,0.3923820195710521,0.3770269761260176,0.3718417299346297,0.36325343345144534,0.33938733630879075,0.32746586875946604,0.0,0.0,0.0,0.0,0.0,0.0,0.0,0.0,0.0,0.0,0.0,0.0,0.0,0.0,0.0,0.0,0.0,0.0,0.0,0.0,0.0,0.0,0.0,0.0,0.0,0.0,0.0,0.0,0.0,0.0,0.0,0.0,0.0,0.0,0.0,0.0,0.0,0.0,0.0,0.0,0.0,0.0,0.0,0.0,0.0,0.0,0.0,0.0,0.0,0.0,0.0,0.0,0.0,0.0,0.0,0.0,0.0,0.0,0.0,0.0,0.0,0.0,0.0,0.0,0.0,0.0,0.0,0.0,0.0,0.0,0.0,0.0,0.0,0.0,0.0,0.0
0.5708100813250793,0.4004634604675716,-0.12383499749923677,-0.21675624272206978,-0.23193023992373138,-0.17277534638161812,-0.23648291405211902,-0.021843233214169318,0.14989440750198438,0.28217446437931165,0.3699408622966491,0.38943659500989986,0.38490106202742236,0.3954718465153423,0.4041860463826427,0.4025785641111696,0.3923820195710521,0.3770269761260176,0.3718417299346297,0.36325343345144534,0.33938733630879075,0.32746586875946604,0.3258105055504635,0.3055417819167248,0.2853773828604008,0.2687338581969594,0.25562641808211617,0.254568710934391,0.2655733251081174,0.25295249199927133,0.2541152397532276,0.2588705529331639,0.27402570939025095,0.3148864745549905,0.3270590318861514,0.3513455480496026,0.36734812450496407,0.3852663209396603,0.394898383663463,0.3945404145866352,0.38588645390035986,0.37062856909374686,0.33175737797302574,0.29646051124847894,0.28342415891140305,0.27223403176289745,0.2713736820523928,0.27062578060855014,0.26147159777803924,0.2948895243032976,0.372557908362618,0.4995535364595097,0.6027533385326584,0.6481307436407084,0.11716859694614788,-0.2064869050451704,-0.3874683884935435,0.12669530496686893,0.1868558003932268,0.2044240520989615,0.20661993678777055,0.19006309408754568,0.19727095295981198,0.19426195466176172,0.18615255098346292,0.19675774265582105,0.1988929080544117,0.21127126419941458,0.22540573146376244,0.2158086099998753,0.18249041872780333,0.17135941995786408,0.1484250133865805,0.14939395375656161,0.0,0.0,0.0,0.0,0.0,0.0,0.0,0.0,0.0,0.0,0.0,0.0,0.0,0.0,0.0,0.0,0.0,0.0,0.0,0.0,0.0,0.0,0.0,0.0,0.0,0.0,0.0,0.0,0.0,0.0,0.0,0.0,0.0,0.0,0.0,0.0,0.0,0.0,0.0,0.0,0.0,0.0,0.0,0.0,0.0,0.0,0.0,0.0,0.0,0.0,0.0,0.0,0.0,0.0,0.0,0.0,0.0,0.0,0.0,0.0,0.0,0.0,0.0,0.0,0.0,0.0,0.0,0.0,0.0,0.0,0.0,0.0,0.0,0.0,0.0,0.0
0.6027533385326584,0.6481307436407084,0.11716859694614788,-0.2064869050451704,-0.3874683884935435,0.12669530496686893,0.1868558003932268,0.2044240520989615,0.20661993678777055,0.19006309408754568,0.19727095295981198,0.19426195466176172,0.18615255098346292,0.19675774265582105,0.1988929080544117,0.21127126419941458,0.22540573146376244,0.2158086099998753,0.18249041872780333,0.17135941995786408,0.1484250133865805,0.14939395375656161,0.14707386738784017,0.1312711974948717,0.12069091049190049,0.10853797064089576,0.11691599731840002,0.11012955007285077,0.11368103378378883,0.10887343663610628,0.10080856781939436,0.11668712517951053,0.12081091622196365,0.1386795949277269,0.17539273458616206,0.18165061072324276,0.19825031038148552,0.2098894515985206,0.24376357082090525,0.25396903043191454,0.2506995347488019,0.24754743101650695,0.26830355130081046,0.27045919085999065,0.2795025588913358,0.2682218643171856,0.2587026537532408,0.2594294816145274,0.2584861321657721,0.264354569161324,0.2923152894705474,0.3389479479393503,0.42803004001989964,0.5782374972653656,0.6314486468911243,0.19154503082638244,-0.24341790698640536,-0.3572810136767901,0.0029421752306010122,0.17089308765340117,0.22989390320922046,0.24796633957245814,0.24553218612826078,0.24471194881649605,0.23872564734697527,0.24119155450679547,0.25552701113630205,0.27324845741313336,0.2773712739477764,0.27300890813187983,0.28057302797849526,0.26267541931788135,0.2448248514126664,0.24402899821628607,0.0,0.0,0.0,0.0,0.0,0.0,0.0,0.0,0.0,0.0,0.0,0.0,0.0,0.0,0.0,0.0,0.0,0.0,0.0,0.0,0.0,0.0,0.0,0.0,0.0,0.0,0.0,0.0,0.0,0.0,0.0,0.0,0.0,0.0,0.0,0.0,0.0,0.0,0.0,0.0,0.0,0.0,0.0,0.0,0.0,0.0,0.0,0.0,0.0,0.0,0.0,0.0,0.0,0.0,0.0,0.0,0.0,0.0,0.0,0.0,0.0,0.0,0.0,0.0,0.0,0.0,0.0,0.0,0.0,0.0,0.0,0.0,0.0,0.0,0.0,0.0
0.6314486468911243,0.19154503082638244,-0.24341790698640536,-0.3572810136767901,0.0029421752306010122,0.17089308765340117,0.22989390320922046,0.24796633957245814,0.24553218612826078,0.24471194881649605,0.23872564734697527,0.24119155450679547,0.25552701113630205,0.27324845741313336,0.2773712739477764,0.27300890813187983,0.28057302797849526,0.26267541931788135,0.2448248514126664,0.24402899821628607,0.2347953998974397,0.24942889361808712,0.24033519240148782,0.2500164506066488,0.24617553991417176,0.23901299158288453,0.23362823683465778,0.23341955543998477,0.2468839281874319,0.24681808465298596,0.26211608074482484,0.257072395596775,0.267378365991864,0.2981248283955961,0.3238020674261007,0.3392983537143949,0.36329972829102736,0.3685917132614601,0.38065666221150785,0.38757604526719736,0.3944289931354362,0.40459274225648595,0.3874434291972595,0.37185364108562874,0.36629455119528975,0.377535517145314,0.4106441086955975,0.5046851356568337,0.6817217907549811,0.5558252105497196,0.007956275659584094,-0.302346887442964,-0.3037311017678742,-0.3056046979286824,0.18843217507842933,0.2655445563620918,0.2946636582301129,0.3098279571429426,0.3042755029686793,0.29504218584550396,0.2685631595785378,0.25717092519528995,0.2557976004062498,0.25427414790802344,0.25093003334131037,0.2525932329081665,0.2507908606827084,0.25234837525066056,0.2334907662878989,0.22314040970741716,0.1924199968301258,0.1889491406637495,0.18044854195432744,0.1703370408169983,0.0,0.0,0.0,0.0,0.0,0.0,0.0,0.0,0.0,0.0,0.0,0.0,0.0,0.0,0.0,0.0,0.0,0.0,0.0,0.0,0.0,0.0,0.0,0.0,0.0,0.0,0.0,0.0,0.0,0.0,0.0,0.0,0.0,0.0,0.0,0.0,0.0,0.0,0.0,0.0,0.0,0.0,0.0,0.0,0.0,0.0,0.0,0.0,0.0,0.0,0.0,0.0,0.0,0.0,0.0,0.0,0.0,0.0,0.0,0.0,0.0,0.0,0.0,0.0,0.0,0.0,0.0,0.0,0.0,0.0,0.0,0.0,0.0,0.0,0.0,0.0
0.6817217907549811,0.5558252105497196,0.007956275659584094,-0.302346887442964,-0.3037311017678742,-0.3056046979286824,0.18843217507842933,0.2655445563620918,0.2946636582301129,0.3098279571429426,0.3042755029686793,0.29504218584550396,0.2685631595785378,0.25717092519528995,0.2557976004062498,0.25427414790802344,0.25093003334131037,0.2525932329081665,0.2507908606827084,0.25234837525066056,0.2334907662878989,0.22314040970741716,0.1924199968301258,0.1889491406637495,0.18044854195432744,0.1703370408169983,0.17393226982912474,0.17085192576806307,0.1747119634782036,0.1685282685887628,0.16591506812468454,0.1753858773103125,0.19525364347613447,0.21533065509115612,0.22542822435616533,0.2340561070692855,0.2293234552504882,0.2333373783675928,0.21890510406498653,0.20643147211990137,0.19592075114701876,0.18057635205798292,0.17570013918413138,0.19829303036146032,0.1905569839228262,0.1728909605112154,0.1622930552118565,0.1417613709267919,0.14359193429894382,0.13888163325328962,0.13102580909709946,0.12171915234305793,0.1245553930797383,0.12592835061724525,0.13263069812574813,0.13105500249663318,0.1228927749455685,0.12513447889098203,0.12927061749113958,0.123391155459074,0.129584538883114,0.13253955639458925,0.12714408702064997,0.12528491095485586,0.12184860880613985,0.13212061139591003,0.14078652534698535,0.14443099138406199,0.1549375537769816,0.16548951439001816,0.17436926955893414,0.17645847539908166,0.1768376544979801,0.161886926900161,0.0,0.0,0.0,0.0,0.0,0.0,0.0,0.0,0.0,0.0,0.0,0.0,0.0,0.0,0.0,0.0,0.0,0.0,0.0,0.0,0.0,0.0,0.0,0.0,0.0,0.0,0.0,0.0,0.0,0.0,0.0,0.0,0.0,0.0,0.0,0.0,0.0,0.0,0.0,0.0,0.0,0.0,0.0,0.0,0.0,0.0,0.0,0.0,0.0,0.0,0.0,0.0,0.0,0.0,0.0,0.0,0.0,0.0,0.0,0.0,0.0,0.0,0.0,0.0,0.0,0.0,0.0,0.0,0.0,0.0,0.0,0.0,0.0,0.0,0.0,0.0
0.5921350119635969,0.42906714469694684,-0.35653495433252275,-0.22624855169311003,-0.1507526694871427,0.028066204377789523,0.1266446698274459,0.14841438896267192,0.16820455889056896,0.16734603339323922,0.1730676476633079,0.17009849050275377,0.17036608755802393,0.17729733205101703,0.17731870150900209,0.1619556561318452,0.14823211532219233,0.14637136315873203,0.11899716373983941,0.11373036862803237,0.11359289171608136,0.13220529320045873,0.14068865565269906,0.14076261557341538,0.1562455390433919,0.1582564403513407,0.1638123749915962,0.17632995608493734,0.17712554466681887,0.17981379146487889,0.1861087668740982,0.19772364222049993,0.2197705710591115,0.23526128530329948,0.2527057638098631,0.27891285274275535,0.3036905708729186,0.32364536795270815,0.33538217528162495,0.3474040006372642,0.35801243656782966,0.3655073386015218,0.3409874700216513,0.31334828371308754,0.2808843126678045,0.25548817422771075,0.22185177913044482,0.21736440865176804,0.21141597935177925,0.22609396894752803,0.22568628093791546,0.2305782491038304,0.21355529997502026,0.20180031155540007,0.20719548659461248,0.21442271665803533,0.22176250842496673,0.22579434007470248,0.2179967118147382,0.24424559924628259,0.3436160624413085,0.5041832486512174,0.6188230294076251,0.25231717274700455,-0.19587706167750696,-0.14950821161104244,0.10751586199402542,0.24710263541852864,0.2862501938070801,0.2827543400651756,0.2876096203016646,0.29741056248828296,0.3019504310029883,0.31142047980795556,0.0,0.0,0.0,0.0,0.0,0.0,0.0,0.0,0.0,0.0,0.0,0.0,0.0,0.0,0.0,0.0,0.0,0.0,0.0,0.0,0.0,0.0,0.0,0.0,0.0,0.0,0.0,0.0,0.0,0.0,0.0,0.0,0.0,0.0,0.0,0.0,0.0,0.0,0.0,0.0,0.0,0.0,0.0,0.0,0.0,0.0,0.0,0.0,0.0,0.0,0.0,0.0,0.0,0.0,0.0,0.0,0.0,0.0,0.0,0.0,0.0,0.0,0.0,0.0,0.0,0.0,0.0,0.0,0.0,0.0,0.0,0.0,0.0,0.0,0.0,0.0
0.6188230294076251,0.25231717274700455,-0.19587706167750696,-0.14950821161104244,0.10751586199402542,0.24710263541852864,0.2862501938070801,0.2827543400651756,0.2876096203016646,0.29741056248828296,0.3019504310029883,0.31142047980795556,0.30541123815765947,0.3094105006374935,0.31320545066185757,0.32018137568400146,0.31842238965214903,0.3011108747669031,0.2733273158218525,0.2588502123068225,0.2525574385059338,0.24932557445224524,0.22703037352743116,0.2026453393729345,0.1846430585462339,0.16619549690033894,-0.18421797273309568,-0.18494480219407528,0.1368032442480113,-0.18794386599623528,-0.19020656901458471,0.10283811133083094,0.12004517714780233,0.15044704788166252,0.17878334958282727,0.20679251993066444,0.2430119282334705,0.2840782151320076,0.36572580309503727,0.4505895695842213,0.608399815776613,0.7524886023508545,0.3830955460866511,-0.015268750942605568,0.023204877608134934,0.16364759061183445,0.2309863312404685,0.2575419035711979,0.25863439288533546,0.2563824223003527,0.26100362705682223,0.2470152763684027,0.2399320260231925,0.2363680381637819,0.227836406113374,0.22794847437842966,0.21291540778215756,0.2014461410658733,0.18164932943830844,0.1722318358330341,0.16470031275426747,0.14886059516062727,0.1315172583733603,0.10077461316012654,0.08383530958993503,0.08070219167602208,0.09647755341433358,0.09546433201579681,0.10656332498750043,0.11277603008155539,0.12090280164331596,0.14114334291082448,0.15989736319824643,0.17886347358080498,0.0,0.0,0.0,0.0,0.0,0.0,0.0,0.0,0.0,0.0,0.0,0.0,0.0,0.0,0.0,0.0,0.0,0.0,0.0,0.0,0.0,0.0,0.0,0.0,0.0,0.0,0.0,0.0,0.0,0.0,0.0,0.0,0.0,0.0,0.0,0.0,0.0,0.0,0.0,0.0,0.0,0.0,0.0,0.0,0.0,0.0,0.0,0.0,0.0,0.0,0.0,0.0,0.0,0.0,0.0,0.0,0.0,0.0,0.0,0.0,0.0,0.0,0.0,0.0,0.0,0.0,0.0,0.0,0.0,0.0,0.0,0.0,0.0,0.0,0.0,0.0
0.7524886023508545,0.3830955460866511,-0.015268750942605568,0.023204877608134934,0.16364759061183445,0.2309863312404685,0.2575419035711979,0.25863439288533546,0.2563824223003527,0.26100362705682223,0.2470152763684027,0.2399320260231925,0.2363680381637819,0.227836406113374,0.22794847437842966,0.21291540778215756,0.2014461410658733,0.18164932943830844,0.1722318358330341,0.16470031275426747,0.14886059516062727,0.1315172583733603,0.10077461316012654,0.08383530958993503,0.08070219167602208,0.09647755341433358,0.09546433201579681,0.10656332498750043,0.11277603008155539,0.12090280164331596,0.14114334291082448,0.15989736319824643,0.17886347358080498,0.1963395728740688,0.20042292725772368,0.19960929785062068,0.19899353088413604,0.19686964899748016,0.18643081070295142,0.16426910293744118,0.155874939052913,0.15273878332743224,0.1531501462100457,0.1417981233645299,0.1339702596594752,0.1381535654271783,0.12883525342025434,0.12810062444322776,0.1206352946231341,0.10812380344807825,0.1024498255482067,0.10699671300255306,0.12514730564102283,0.13648451890008811,0.1613895957537526,0.22874287868552115,0.3895233362543689,0.5298130238222184,0.4319947095627413,-0.08245249052786895,-0.251975738737167,-0.14969295009791864,0.025505125457271818,0.11554091210011956,0.14423203982356345,0.15409508116659246,0.1519468033931939,0.14800311606478736,0.14737929984951786,0.14159024430859657,0.14764944790302273,0.13837083509567563,0.13756628369476998,0.11634833167535068,0.0,0.0,0.0,0.0,0.0,0.0,0.0,0.0,0.0,0.0,0.0,0.0,0.0,0.0,0.0,0.0,0.0,0.0,0.0,0.0,0.0,0.0,0.0,0.0,0.0,0.0,0.0,0.0,0.0,0.0,0.0,0.0,0.0,0.0,0.0,0.0,0.0,0.0,0.0,0.0,0.0,0.0,0.0,0.0,0.0,0.0,0.0,0.0,0.0,0.0,0.0,0.0,0.0,0.0,0.0,0.0,0.0,0.0,0.0,0.0,0.0,0.0,0.0,0.0,0.0,0.0,0.0,0.0,0.0,0.0,0.0,0.0,0.0,0.0,0.0,0.0
0.5298130238222184,0.4319947095627413,-0.08245249052786895,-0.251975738737167,-0.14969295009791864,0.025505125457271818,0.11554091210011956,0.14423203982356345,0.15409508116659246,0.1519468033931939,0.14800311606478736,0.14737929984951786,0.14159024430859657,0.14764944790302273,0.13837083509567563,0.13756628369476998,0.11634833167535068,0.10872721547855337,0.09941385459769943,0.09011818875422434,0.06895000950893701,0.051217960014409286,0.03523077480897365,0.015897019568324126,0.03402390624759798,0.06412026824648724,0.10109424548218221,0.12115413701992131,0.11920725670432611,0.13775909142906956,0.15301623298119352,0.15988410460289337,0.1702669283193913,0.18926830118970972,0.21349118700613332,0.24123755960586027,0.25890863066521924,0.27160392592335175,0.267422112712054,0.25825988975336095,0.25091274949948633,0.24197515478467982,0.22804031387944368,0.20060035601924858,0.19194522351205548,0.17656533852579373,0.16804916038991555,0.17318444006150407,0.1596590913641992,0.13765907185991996,0.1275692791336433,0.1225746202922801,0.14985849232472903,0.2315038101875297,0.39979247786327493,0.5340091670377816,0.2567431360851827,-0.20763446587383874,-0.20296485128381134,0.015753869564320355,0.12554461258371702,0.17232075077115105,0.174795727217625,0.1805813819795132,0.1828900767691405,0.1732333140055027,0.16522111468066059,0.16396285168800917,0.16436733349685487,0.16814237430792223,0.15659548984823798,0.15013235202059824,0.1351587220219663,0.12527891257025212,0.0,0.0,0.0,0.0,0.0,0.0,0.0,0.0,0.0,0.0,0.0,0.0,0.0,0.0,0.0,0.0,0.0,0.0,0.0,0.0,0.0,0.0,0.0,0.0,0.0,0.0,0.0,0.0,0.0,0.0,0.0,0.0,0.0,0.0,0.0,0.0,0.0,0.0,0.0,0.0,0.0,0.0,0.0,0.0,0.0,0.0,0.0,0.0,0.0,0.0,0.0,0.0,0.0,0.0,0.0,0.0,0.0,0.0,0.0,0.0,0.0,0.0,0.0,0.0,0.0,0.0,0.0,0.0,0.0,0.0,0.0,0.0,0.0,0.0,0.0,0.0
0.5340091670377816,0.2567431360851827,-0.20763446587383874,-0.20296485128381134,0.015753869564320355,0.12554461258371702,0.17232075077115105,0.174795727217625,0.1805813819795132,0.1828900767691405,0.1732333140055027,0.16522111468066059,0.16396285168800917,0.16436733349685487,0.16814237430792223,0.15659548984823798,0.15013235202059824,0.1351587220219663,0.12527891257025212,0.11369708395272533,0.11061633392628414,0.10243980235253874,0.0874697707163638,0.07930761578139445,0.06775488755254369,0.05281247781516052,0.03958080873941343,0.01446051818247086,0.006350955757936667,0.02545187852621329,0.09386270649785819,0.13678521839814362,0.17461828127828236,0.20056077608068862,0.22821018729340023,0.24566365080428684,0.2699164200194071,0.27206369759324855,0.2656982462586772,0.2491118609522989,0.24269444114293715,0.24983507687591913,0.2807214702700426,0.3659395509057509,0.5411737139153936,0.6619111477731336,0.627835201131463,0.019034112440330684,-0.17174326191199107,-0.3219130081616419,0.10060176979937507,0.16424610110792884,0.1886324122965467,0.19927985381673444,0.19960719993448733,0.179432577425178,0.1693720683022393,0.13204260195945028,0.13035768772897918,0.1558320065003795,0.18467997989699325,0.18461546845003382,0.18794975197474356,0.1776944520028667,0.1776592035914477,0.16745388727837268,0.15388679748821624,0.13866552221685924,0.12859674918545227,0.13218642917395404,0.12394074225019389,0.1225640735967536,0.1093611481912821,0.10983494423795849,0.0,0.0,0.0,0.0,0.0,0.0,0.0,0.0,0.0,0.0,0.0,0.0,0.0,0.0,0.0,0.0,0.0,0.0,0.0,0.0,0.0,0.0,0.0,0.0,0.0,0.0,0.0,0.0,0.0,0.0,0.0,0.0,0.0,0.0,0.0,0.0,0.0,0.0,0.0,0.0,0.0,0.0,0.0,0.0,0.0,0.0,0.0,0.0,0.0,0.0,0.0,0.0,0.0,0.0,0.0,0.0,0.0,0.0,0.0,0.0,0.0,0.0,0.0,0.0,0.0,0.0,0.0,0.0,0.0,0.0,0.0,0.0,0.0,0.0,0.0,0.0
0.6619111477731336,0.627835201131463,0.019034112440330684,-0.17174326191199107,-0.3219130081616419,0.10060176979937507,0.16424610110792884,0.1886324122965467,0.19927985381673444,0.19960719993448733,0.179432577425178,0.1693720683022393,0.13204260195945028,0.13035768772897918,0.1558320065003795,0.18467997989699325,0.18461546845003382,0.18794975197474356,0.1776944520028667,0.1776592035914477,0.16745388727837268,0.15388679748821624,0.13866552221685924,0.12859674918545227,0.13218642917395404,0.12394074225019389,0.1225640735967536,0.1093611481912821,0.10983494423795849,0.11038889624758004,0.13652488644386343,0.16274555351346903,0.1975519812470081,0.2120453992061027,0.22152491523936682,0.23618870780916087,0.2509342402754965,0.24705814396349277,0.224555315777678,0.22081845783308252,0.2324401961940972,0.30361083165256064,0.42752081120675517,0.5616599796860022,0.6941152592711123,0.45597992269497195,-0.05076830884771903,-0.3671631529138493,0.09496318129688973,0.16265854875407573,0.184431295456535,0.1891971534635462,0.19907110713223405,0.1987681543327345,0.19510173060309627,0.18638449570850082,0.1709281339054766,0.16404296139226496,0.15723905031656918,0.1607251728618966,0.15411010006095796,0.1357013195712104,0.1276049379094791,0.11282738619835037,0.10667362887768499,0.09044893852202933,0.08115713845258783,0.065202384790327,0.07998711946309606,0.1170146359535026,0.11848909260240105,0.13541127140829265,0.14568323730819133,0.12890633456917308,0.0,0.0,0.0,0.0,0.0,0.0,0.0,0.0,0.0,0.0,0.0,0.0,0.0,0.0,0.0,0.0,0.0,0.0,0.0,0.0,0.0,0.0,0.0,0.0,0.0,0.0,0.0,0.0,0.0,0.0,0.0,0.0,0.0,0.0,0.0,0.0,0.0,0.0,0.0,0.0,0.0,0.0,0.0,0.0,0.0,0.0,0.0,0.0,0.0,0.0,0.0,0.0,0.0,0.0,0.0,0.0,0.0,0.0,0.0,0.0,0.0,0.0,0.0,0.0,0.0,0.0,0.0,0.0,0.0,0.0,0.0,0.0,0.0,0.0,0.0,0.0
0.6941152592711123,0.45597992269497195,-0.05076830884771903,-0.3671631529138493,0.09496318129688973,0.16265854875407573,0.184431295456535,0.1891971534635462,0.19907110713223405,0.1987681543327345,0.19510173060309627,0.18638449570850082,0.1709281339054766,0.16404296139226496,0.15723905031656918,0.1607251728618966,0.15411010006095796,0.1357013195712104,0.1276049379094791,0.11282738619835037,0.10667362887768499,0.09044893852202933,0.08115713845258783,0.065202384790327,0.07998711946309606,0.1170146359535026,0.11848909260240105,0.13541127140829265,0.14568323730819133,0.12890633456917308,0.142879172817409,0.1791014180770497,0.20697258895293225,0.212890872406995,0.24275189406290226,0.24215278829122533,0.2535869897289578,0.2549483795652234,0.23262935298629275,0.18322076875505366,0.1747104907172338,0.17648799620240557,0.183441234783975,0.17855757889043267,0.17202278592680217,0.1604220694188589,0.1641391721883171,0.15595825612680683,0.1664611795683491,0.1701304603038514,0.1363479146590659,0.15519141174320392,0.18924140994446575,0.2044775044668314,0.23147668699115934,0.23281667135401857,0.21187296728260324,0.22471856839974474,0.24582750241531823,0.32107084167596145,0.5320175135056029,0.664442428637027,0.5568164856944444,-0.2566849320791079,-0.2563401661854342,-0.15104599565331986,0.03200766375832376,0.12114895281454299,0.15720040054446155,0.16568432275466632,0.17722211840899882,0.1867352739348841,0.16364504385286763,0.1725693066465984,0.0,0.0,0.0,0.0,0.0,0.0,0.0,0.0,0.0,0.0,0.0,0.0,0.0,0.0,0.0,0.0,0.0,0.0,0.0,0.0,0.0,0.0,0.0,0.0,0.0,0.0,0.0,0.0,0.0,0.0,0.0,0.0,0.0,0.0,0.0,0.0,0.0,0.0,0.0,0.0,0.0,0.0,0.0,0.0,0.0,0.0,0.0,0.0,0.0,0.0,0.0,0.0,0.0,0.0,0.0,0.0,0.0,0.0,0.0,0.0,0.0,0.0,0.0,0.0,0.0,0.0,0.0,0.0,0.0,0.0,0.0,0.0,0.0,0.0,0.0,0.0
0.6033158255037094,0.25383065915969705,-0.1958431997727005,-0.15993494730651225,-0.2492496812119041,0.17981615279786559,0.23687437553915547,0.2437517538183504,0.23327911319096759,0.22578898988601476,0.2244292817062908,0.23078462368867766,0.23394145815590855,0.21986080586566303,0.21668013103445247,0.20254751630379858,0.19778757408069075,0.19148122761518635,0.1758326788614076,0.15554224293507837,0.1478064263562682,0.1260812109467416,0.11849652322999422,0.11100404615734383,0.09736553930232981,0.0697800733972931,0.06887238079687057,0.058722287727923796,0.06433249507314327,0.08102486750539803,0.090061743646374,0.11332053633857495,0.14143553169643583,0.1759753859784825,0.19976244241397212,0.20499096728103683,0.19791343243430423,0.20665115826711067,0.19996339040886452,0.20284515878801326,0.199675014170897,0.18888969748676918,0.17673562039465002,0.1772689192099097,0.18111283925530375,0.18357614097189429,0.17528027777364444,0.17183992632929287,0.16699901341264384,0.17168407862851298,0.18119948837697317,0.17835168006996416,0.17562672772036644,0.18707194740362762,0.2048639035680114,0.2508587679004273,0.28598846875053374,0.29461568748866235,0.2876579504992483,0.2650963743415172,0.24253197549461675,0.22462950820905034,0.1988690420448012,0.1855343336546293,0.1830382718525389,0.18823068395989842,0.20889541885348947,0.24812898279377127,0.340269513983459,0.499346170307776,0.5784866247447216,0.3855141727333856,-0.11241313298157948,-0.27798375803132175,-0.27837440659762525,0.07074473531242963,0.1445446079992173,0.17736939957156814,0.1833017066588527,0.18579604196924884,0.17706332528305097,0.1696212870729211,0.1666139695690897,0.1680602992534168,0.16304343279114192,0.14845635565084575,0.13525044247265283,0.1281277903310389,0.13022768622730016,0.12594317067217076,0.11528797124762903,0.09515091817786481,0.0780416034568866,0.06709634039830693,0.06076465064481821,0.05437145271547575,0.04636562894801652,0.02894725453904366,0.022434581634430833,0.019027308866363626,0.017173557977989452,0.01688348939687879,0.010356508577974632,0.006975408589415579,0.020809332179699724,0.047181781368672134,0.06891908356177684,0.08446866846522609,0.10008829029465172,0.11422461181750568,0.12844806300172343,0.13964210122927875,0.13844100635796047,0.1279754306027911,0.11606173543666398,0.11051564245531945,0.10665522237808045,0.10292226098799265,0.08682307404521714,0.07241973765505771,0.06908749234454539,0.06589347686944516,0.0612772874738654,0.061488860039367564,0.047783682925595546,0.03890814875111334,0.0,0.0,0.0,0.0,0.0,0.0,0.0,0.0,0.0,0.0,0.0,0.0,0.0,0.0,0.0,0.0,0.0,0.0,0.0,0.0,0.0,0.0,0.0,0.0
0.5784866247447216,0.3855141727333856,-0.11241313298157948,-0.27798375803132175,-0.27837440659762525,0.07074473531242963,0.1445446079992173,0.17736939957156814,0.1833017066588527,0.18579604196924884,0.17706332528305097,0.1696212870729211,0.1666139695690897,0.1680602992534168,0.16304343279114192,0.14845635565084575,0.13525044247265283,0.1281277903310389,0.13022768622730016,0.12594317067217076,0.11528797124762903,0.09515091817786481,0.0780416034568866,0.06709634039830693,0.06076465064481821,0.05437145271547575,0.04636562894801652,0.02894725453904366,0.022434581634430833,0.019027308866363626,0.017173557977989452,0.01688348939687879,0.010356508577974632,0.006975408589415579,0.020809332179699724,0.047181781368672134,0.06891908356177684,0.08446866846522609,0.10008829029465172,0.11422461181750568,0.12844806300172343,0.13964210122927875,0.13844100635796047,0.1279754306027911,0.11606173543666398,0.11051564245531945,0.10665522237808045,0.10292226098799265,0.08682307404521714,0.07241973765505771,0.06908749234454539,0.06589347686944516,0.0612772874738654,0.061488860039367564,0.047783682925595546,0.03890814875111334,0.034862805364460084,0.035648006073431215,0.03970179605082782,0.031402837840713065,0.021685870434617446,0.01836120816794732,0.021428387841919173,0.023076185346871027,0.027990339998941724,0.011175933134960602,0.005436857515854996,0.006085738319666228,0.01468370882401804,0.0187326674891349,0.011982974640567143,0.00849263661310533,0.00669826161699165,0.01440921832509024,0.026937771351216975,0.027099042695356002,0.013329357878309684,0.010621181882114753,0.015848504264603235,0.01963672619382764,0.02667037398402693,0.021326136093231404,0.014536842584049102,0.01879735070937508,0.018484036260476264,0.029215857461216303,0.030682602233024672,0.024443785911588564,0.026117974808291578,0.02945373952204256,0.032885921524778816,0.03953561648264251,0.038464551243460744,0.03747986082858823,0.030329283547916155,0.03731664526847897,0.04906507761251068,0.054635391798051346,0.05089882282259063,0.042537001611496705,0.052976910447633745,0.07440264250950751,0.09743589227010396,0.1080115807262939,0.10768547990516181,0.12300696291136888,0.14459578653992375,0.17088176165585803,0.18311050411462804,0.20314225470803698,0.20753445786730973,0.21658328929948767,0.2287140135457779,0.21423240345352557,0.19655563821290345,0.17566781853755445,0.16404913293067025,0.1616818209886098,0.17010943588303484,0.17993978562972954,0.21302250411664875,0.27870925496507915,0.45196025716442223,0.5546686571610676,0.49151843411139723,-0.0015196588359844391,0.0,0.0,0.0,0.0,0.0,0.0,0.0,0.0,0.0,0.0,0.0,0.0,0.0,0.0,0.0,0.0,0.0,0.0,0.0,0.0,0.0,0.0,0.0,0.0
0.5546686571610676,0.49151843411139723,-0.0015196588359844391,-0.399599746536049,-0.14663313305682857,0.006000831359757366,0.10831137677576397,0.14313594894748652,0.15579680491303693,0.15724854196949692,0.14907217550411853,0.1500314066920868,0.14139797964448864,0.14037196619763023,0.13915859006243925,0.1268381054480773,0.11592207808526842,0.10798650276743668,0.1139795976034207,0.10423356142439005,0.08969550250868148,0.07974987414585709,0.06347294147538873,0.05649684584382514,0.06039420684430006,0.04549468516636774,0.04148872472531362,0.024953992050102045,0.02401836231800145,0.019945571307294588,0.02836617876573792,0.02585729918904349,0.010865778735574597,0.008394609233646303,0.020014720868167267,0.019178593073584577,0.024640486018798924,0.033284690486200405,0.037308972592846504,0.0445322702420173,0.06745973625503238,0.08891575819347741,0.09484865396219176,0.09932470566463912,0.10391265059327319,0.09924579267024672,0.10095105738993966,0.09809859906132083,0.08756873634290964,0.08030050178893784,0.06848688425834525,0.061503943138205355,0.059354592455365326,0.05735503725405396,0.05706972108940786,0.04287932871073461,0.03977973886389176,0.03996180565777542,0.04967538869129503,0.0439274713349815,0.0445888032114476,0.03760083642369661,0.033898941266195956,0.03973189856632838,0.03791631234225758,0.03782486290910209,0.030084435148808625,0.025629464491586967,0.03226996830353612,0.039070229951822445,0.047591442021510895,0.03908686207393895,0.03230072141645431,0.033479985354354175,0.036374387121588525,0.04410629547798563,0.04730082674369803,0.04126927817030338,0.0416304501778233,0.045257330988278326,0.05839550359724322,0.06542045122009252,0.0663287033043579,0.05799219455337981,0.06227666916246244,0.06511850348368436,0.07901003744222604,0.08207634130946512,0.08056049908400732,0.08070518438275173,0.08250413273623196,0.09376134525389727,0.10353480467292299,0.11962763077536832,0.1357832212805615,0.14418224194870932,0.1557502854755223,0.17360155454066353,0.16960679665301848,0.18436977943627036,0.16945179468497096,0.15451990339315055,0.1473704458023207,0.14173978516576835,0.1344878155264864,0.13653292661724944,0.13692296223820935,0.15594775994423507,0.20764793739151433,0.3560516147683954,0.8042157840896484,0.5476662135040815,0.11594006227168101,-0.22855313206407976,-0.19841027052455829,-0.03420777307058553,0.08754427597237535,0.13717962118824942,0.1443926546363472,0.1576226883294835,0.16126082565753164,0.156880853927566,0.14761788796350006,0.1397305258269128,0.14260089513187815,0.1577997557350035,0.0,0.0,0.0,0.0,0.0,0.0,0.0,0.0,0.0,0.0,0.0,0.0,0.0,0.0,0.0,0.0,0.0,0.0,0.0,0.0,0.0,0.0,0.0,0.0
0.20764793739151433,0.3560516147683954,0.8042157840896484,0.5476662135040815,0.11594006227168101,-0.22855313206407976,-0.19841027052455829,-0.03420777307058553,0.08754427597237535,0.13717962118824942,0.1443926546363472,0.1576226883294835,0.16126082565753164,0.156880853927566,0.14761788796350006,0.1397305258269128,0.14260089513187815,0.1577997557350035,0.1478438089642326,0.14242072145033363,0.129039807438907,0.11864167638645856,0.11747989108755431,0.11306181527676824,0.09758062675212133,0.08041241003320071,0.06624636027355718,0.051960601459853574,0.04380572927275657,0.03397287520121777,0.02246362081038,0.003030842517139891,-0.005578554444229769,-0.012736088771084227,-0.018439946272301277,-0.024249236649293005,-0.03796985309244571,-0.03928697633724861,-0.025065652013789824,0.012519207973497148,0.03443105832809483,0.050059439607438624,0.07972865696044484,0.09689875060980634,0.11720697530105413,0.13442022779242083,0.14230481880726248,0.13306425314682882,0.13795466961246333,0.1382432594132834,0.14175279894150591,0.13131123223757055,0.12567487246017497,0.12016736889734299,0.11011174246273604,0.11582455436865133,0.12481700502835581,0.1152269128065396,0.10736908514899043,0.09812574605241928,0.09062711795198149,0.10206213704280966,0.0996310041134862,0.09427315662899868,0.08130619568963886,0.08416565980733057,0.08410906779689634,0.09363619406420985,0.08775518076658545,0.08052704740455498,0.08288810706081137,0.08078012904733027,0.09138714465490222,0.08971516810754973,0.08201243311292217,0.07921312626573092,0.0906888902775543,0.08988189391208637,0.09553573329662778,0.09515087872965919,0.09341079486163745,0.09499847058862572,0.09366149100594026,0.10345470588912195,0.10875195410787397,0.10173722636320753,0.11677158276248611,0.11948168660437082,0.11767123049573176,0.13320251402371364,0.13638683232738075,0.1443988291622526,0.155666860498077,0.1717428279523908,0.1894914533455259,0.2104630012465768,0.20808837998995616,0.2089099955079657,0.20510226922972166,0.19352497949726533,0.1913446188138695,0.17979763417565675,0.17604859373790835,0.1675806240693519,0.16687011263122628,0.19732754572842262,0.24018496214914611,0.35790437273418374,0.5473369669188765,0.8850009694860443,0.37110166588705673,-0.08679468803023123,-0.16692387478911097,-0.34732594775287784,0.0811966014185882,0.15482895477423694,0.1844570862895019,0.18416076981121526,0.17582952600561513,0.16416848270444762,0.15856829005473125,0.1559217067933308,0.16093136792049836,0.16111565679730916,0.15805135651670665,0.15331444459335006,0.0,0.0,0.0,0.0,0.0,0.0,0.0,0.0,0.0,0.0,0.0,0.0,0.0,0.0,0.0,0.0,0.0,0.0,0.0,0.0,0.0,0.0,0.0,0.0
0.35790437273418374,0.5473369669188765,0.8850009694860443,0.37110166588705673,-0.08679468803023123,-0.16692387478911097,-0.34732594775287784,0.0811966014185882,0.15482895477423694,0.1844570862895019,0.18416076981121526,0.17582952600561513,0.16416848270444762,0.15856829005473125,0.1559217067933308,0.16093136792049836,0.16111565679730916,0.15805135651670665,0.15331444459335006,0.14223157300124595,0.14512276827765797,0.14637826791973174,0.1381982529156089,0.12371710910886392,0.10919279899374171,0.1102554694047466,0.09254643894142765,0.08575396158565458,0.06801541249517454,0.06276961886598444,0.049715320829928134,0.03979362109010556,0.03925897231010974,0.038744289975753146,0.016385222710246544,0.014364712075018667,0.034250138360229436,0.06823600710667325,0.10851665260445255,0.14416180032169906,0.18454837281585898,0.20937202923699422,0.2123867103820099,0.22015012042798277,0.22328982373618453,0.22336722066405765,0.22038046129895816,0.22682364945987868,0.22082284300221997,0.22424271265022602,0.21989347948973778,0.2171405183494807,0.22222383694884762,0.21638821616915943,0.22930347422254477,0.2344015298252212,0.22542089484861255,0.2210930502919736,0.21827847655653967,0.2263336191460347,0.23274395867825462,0.22968024556580202,0.22649553853212875,0.234103881720426,0.229051242734907,0.2394328347523041,0.34801740942699866,0.5766493022314652,0.648803548746336,0.18016506765897344,-0.1560198695659969,-0.25043620165856073,-0.25150612592073446,0.1360179569393968,0.22951176737004736,0.2695714339214469,0.2796553364705036,0.2629127673643787,0.25061002945096605,0.24433156841593964,0.2316013725061188,0.22806061708789604,0.22747944602725567,0.22050259524516166,0.1946493956234126,0.17961568869695363,0.17072939869246634,0.1523826150114163,0.1480199189324633,0.13578324901313416,0.11255940956297099,0.09866653328978359,0.07224457693821092,0.07235622293795846,0.053708566163601264,0.038180094010202704,0.014844215089677345,0.011827492637657392,0.007268133397739136,0.016795496679275723,0.03729329959934308,0.04533743562495595,0.06905402784855896,0.08501855658349056,0.11042163621810533,0.12808651198668955,0.1333329475830885,0.11679366480568484,0.11284046577521385,0.11210482165699613,0.10521763941402341,0.09686846987388674,0.09487060541791498,0.08204271294960734,0.06775925997588372,0.06920497289493675,0.06919729524737378,0.07242319804248279,0.0523266298837251,0.049522931560174906,0.05151463231486139,0.04267974613422096,0.04020083967184605,0.03314185740518324,0.024625747196188066,0.016213157376561566,0.0,0.0,0.0,0.0,0.0,0.0,0.0,0.0,0.0,0.0,0.0,0.0,0.0,0.0,0.0,0.0,0.0,0.0,0.0,0.0,0.0,0.0,0.0,0.0
0.648803548746336,0.18016506765897344,-0.1560198695659969,-0.25043620165856073,-0.25150612592073446,0.1360179569393968,0.22951176737004736,0.2695714339214469,0.2796553364705036,0.2629127673643787,0.25061002945096605,0.24433156841593964,0.2316013725061188,0.22806061708789604,0.22747944602725567,0.22050259524516166,0.1946493956234126,0.17961568869695363,0.17072939869246634,0.1523826150114163,0.1480199189324633,0.13578324901313416,0.11255940956297099,0.09866653328978359,0.07224457693821092,0.07235622293795846,0.053708566163601264,0.038180094010202704,0.014844215089677345,0.011827492637657392,0.007268133397739136,0.016795496679275723,0.03729329959934308,0.04533743562495595,0.06905402784855896,0.08501855658349056,0.11042163621810533,0.12808651198668955,0.1333329475830885,0.11679366480568484,0.11284046577521385,0.11210482165699613,0.10521763941402341,0.09686846987388674,0.09487060541791498,0.08204271294960734,0.06775925997588372,0.06920497289493675,0.06919729524737378,0.07242319804248279,0.0523266298837251,0.049522931560174906,0.05151463231486139,0.04267974613422096,0.04020083967184605,0.03314185740518324,0.024625747196188066,0.016213157376561566,0.021961683717008837,0.029372565966000276,0.021260532600685122,0.010120707833765423,0.00844810957528039,0.011554233101087314,0.016312665267463167,0.01959693515951921,0.013594088836137686,0.006112412581200099,-0.002850544396693894,0.002324074758667611,0.012261256569734164,0.011337440654711387,0.007361012640034565,-0.0027946352818367408,-0.0050726756928638345,0.0005247799266360449,0.0077475667166665724,-0.003713687195375986,-0.005742243969936037,-0.006150090849427182,-0.004938000458248184,0.001018106479767845,0.003907841604058812,0.0006072129264328224,-0.007321389617607605,-0.007380642381851981,-0.004255998218718762,0.008302727927172546,0.003741315190715378,-0.0038790194616811443,-0.0004970777701839758,0.0013924320754410803,0.011164722601361666,0.0069523229522347645,0.01062745343619463,0.008133221717507941,0.00728255581671936,0.01276407544632999,0.01833142715928913,0.022424595151071498,0.018797070497113287,0.012137168896647494,0.01494378116839206,0.028780800698447753,0.02865577119756179,0.03487797328053559,0.02245466347525668,0.02887827675844672,0.030717916815776992,0.043595888465722675,0.040956729771051976,0.046233043086051216,0.040679612815234766,0.04304220390112191,0.056445039678492626,0.06058012095659457,0.06638184273882743,0.055103754529603054,0.06267375765798248,0.064096258916521,0.07967723253704326,0.08442045146202137,0.08144769902517994,0.08169100556282377,0.0882713250679249,0.08556359722681715,0.0,0.0,0.0,0.0,0.0,0.0,0.0,0.0,0.0,0.0,0.0,0.0,0.0,0.0,0.0,0.0,0.0,0.0,0.0,0.0,0.0,0.0,0.0,0.0
0.20090639526677903,0.3058181310759208,0.49335488276029715,0.5822873684588027,0.3882595718939829,-0.1199983201936426,-0.3082890546292533,-0.09383721719914222,0.054728654969055386,0.12805628264778687,0.14491152174364022,0.152177996659205,0.15299886025237186,0.150516504491048,0.16036962691657947,0.15601855932166672,0.15310044481699844,0.13444683618014874,0.14068747206226548,0.14059326311581008,0.1357392267962013,0.1355103466973799,0.12585892040263966,0.1146064414370861,0.10801164021025512,0.10764627263657259,0.10570875164645822,0.08814841665509858,0.06903248731133707,0.06555201016386863,0.06053074253766628,0.052413452207327224,0.05057954104050844,0.04566254298599569,0.03610640819970677,0.02660339380871469,0.029656245512888757,0.04058410396448669,0.042208890966798376,0.04390860035904151,0.07849302225049155,0.10847570526388398,0.15885515839554357,0.2108896012761782,0.24427432543973607,0.2512006385398991,0.24729063417323452,0.2544136852169869,0.2694437869597496,0.2705080567700796,0.25916427211211196,0.27289793579195043,0.26640016228306,0.2662188573337322,0.2754685873769343,0.26133350986909404,0.2566060254043378,0.2612724176689249,0.2721934196770524,0.2690449860501861,0.268992922145914,0.2610832793194781,0.26716557420182746,0.27003467248332624,0.27904037898291556,0.28166127485262876,0.27318521514744165,0.27545492157240326,0.27438267202423405,0.260565768587949,0.3152039030513184,0.432015970399089,0.5156776618013438,0.11782026480965556,-0.2757714864741387,-0.2777278777704796,-0.15518706749398067,-0.0705978639060436,0.038552937722663834,0.2176017768879023,0.3150560388788373,0.3215761986837932,0.31998705144798334,0.30094588899854435,0.29884815021444583,0.2856024164065116,0.27997978927383976,0.2648208646211933,0.2573317824156742,0.22941547771200319,0.21858321938662453,0.20923257932569833,0.1998192408879956,0.18254930598552077,0.1652492156437487,0.143247427573884,0.1274929114507282,0.11018831486033447,0.10540552141774386,0.08816251827223522,0.06784370960676558,0.0585194602546032,0.055514189978857945,0.07602189943888367,0.09037229709405896,0.11575872592329044,0.13032073151981144,0.15437489384934847,0.16605952810784746,0.1856897907829081,0.18515385961449637,0.17070592795490977,0.15953420013391997,0.15476682256295143,0.14703407341468772,0.125403323206732,0.11799455281050812,0.09825243234696093,0.08648505659329649,0.07956802175004642,0.08218716069729694,0.07247163351857784,0.05823073195999809,0.050397653051434066,0.04428396445942722,0.046135918609026286,0.0,0.0,0.0,0.0,0.0,0.0,0.0,0.0,0.0,0.0,0.0,0.0,0.0,0.0,0.0,0.0,0.0,0.0,0.0,0.0,0.0,0.0,0.0,0.0
0.5156776618013438,0.11782026480965556,-0.2757714864741387,-0.2777278777704796,-0.15518706749398067,-0.0705978639060436,0.038552937722663834,0.2176017768879023,0.3150560388788373,0.3215761986837932,0.31998705144798334,0.30094588899854435,0.29884815021444583,0.2856024164065116,0.27997978927383976,0.2648208646211933,0.2573317824156742,0.22941547771200319,0.21858321938662453,0.20923257932569833,0.1998192408879956,0.18254930598552077,0.1652492156437487,0.143247427573884,0.1274929114507282,0.11018831486033447,0.10540552141774386,0.08816251827223522,0.06784370960676558,0.0585194602546032,0.055514189978857945,0.07602189943888367,0.09037229709405896,0.11575872592329044,0.13032073151981144,0.15437489384934847,0.16605952810784746,0.1856897907829081,0.18515385961449637,0.17070592795490977,0.15953420013391997,0.15476682256295143,0.14703407341468772,0.125403323206732,0.11799455281050812,0.09825243234696093,0.08648505659329649,0.07956802175004642,0.08218716069729694,0.07247163351857784,0.05823073195999809,0.050397653051434066,0.04428396445942722,0.046135918609026286,0.045016074474815,0.03779742945662159,0.02447702351583689,0.0206730458363796,0.017009422081570615,0.022855580401111703,0.02571099040404902,0.016199275063461718,0.006813802291022174,0.006923591360092329,0.0071520216234125305,0.013743776025441454,0.011073628256984441,-0.0024245123213256915,0.002925884702352876,0.006813297797572083,0.010796064298005541,0.008621818366000273,0.0034109431093869522,-0.007964756756965638,-0.003639352437424082,-0.0007995040086508679,0.003676213863750698,-0.002712035742616904,-0.005907833174772878,-0.009037973166983458,-0.007418020104525707,0.003637320234774185,0.0038199056495198,0.0009399845291287882,-0.0003164814784443016,-0.006198472171940405,-0.0026471976117821818,0.005651115144853897,-0.0016108476851106437,-0.005687082616142175,-0.0034527713418521246,-0.0042796258507434475,0.007455111017438641,0.006759123642249451,0.004569137009941986,0.005573307027280992,0.00664909765050856,0.009360346432234197,0.016832991500546655,0.019695853614062456,0.0070155355454730815,0.005349753291422194,0.006889243709590428,0.016321787476632002,0.021151658792339954,0.024504388457245025,0.023256866229713926,0.02365866227197617,0.016337892252254953,0.03253803289061745,0.036330724916066495,0.03396505953356334,0.03168994629444453,0.03731625874571655,0.0414712399540116,0.047279016972408286,0.051614974213915275,0.059164928801293995,0.05274456628888947,0.060471157214460544,0.06515982758487679,0.07305740836573434,0.07478906651381619,0.07347667426660358,0.07692813137914774,0.08514030111829086,0.0,0.0,0.0,0.0,0.0,0.0,0.0,0.0,0.0,0.0,0.0,0.0,0.0,0.0,0.0,0.0,0.0,0.0,0.0,0.0,0.0,0.0,0.0,0.0
0.147748030331286,0.209334467589067,0.3958123432970023,0.8368229333284283,0.8403231446660528,0.10948555688269766,-0.22473113970023104,-0.20921770319861693,-0.05174332582972601,0.08212028903710275,0.1267829181904049,0.1322518305688669,0.13447445680787637,0.13971702368528538,0.14955868414375934,0.15932935725697503,0.15186114373744858,0.14122802407025983,0.1399410856138025,0.13864083609280456,0.14827482319914356,0.13917442207536118,0.1441556193285835,0.12729981757125544,0.13079438968610096,0.12496791629225053,0.12857447248687887,0.11506562771952149,0.1031941893754092,0.09140464983905644,0.09532445755467334,0.09465152606096805,0.08314249666306843,0.08110981236491972,0.076060690217666,0.06956114611209717,0.07723602002425933,0.08815352916802045,0.08513296929327799,0.0916086747274391,0.11539321592338922,0.1486773670809649,0.19771052982263057,0.2515578903533725,0.2867865757577876,0.29558379354069636,0.29669159223048797,0.29947773951077855,0.31018425196528837,0.3084953738325921,0.2881530028187124,0.29913431170763294,0.29924913708124007,0.30254263740469234,0.3105614043297221,0.3107913124061677,0.3079001554074881,0.3065541731505802,0.3114180659515639,0.3146579307879533,0.32562177957757504,0.32553764217118686,0.32218819526709563,0.3217923540544299,0.336815958065212,0.34535629380840804,0.3489409710277069,0.3459716050433931,0.3301616650079933,0.31865489753052184,0.4223214276697182,0.5755086654405057,0.4032594126991013,-0.1928887199303553,-0.1929123223080485,-0.10922293823490009,-0.19489957056060506,-0.19687948796225152,-0.19950234898670732,0.27059266545591876,0.36678224846112295,0.3765508941834888,0.37961746467767854,0.3744679805535722,0.36895936725953155,0.3615738749782101,0.36485111348413274,0.36164834208406627,0.3488802002179177,0.3390808572935588,0.32447499864528256,0.3160312200547053,0.3106572905397425,0.30057299749930677,0.27331017358295534,0.26013889556234776,0.25327452813408824,0.24180686765836754,0.22888364851144363,0.2207756636771712,0.20813122351148705,0.21440234473232725,0.22711092551925752,0.24939913024979501,0.27503518482102396,0.2915375328505073,0.314541651557299,0.3346874193373086,0.3457374095201229,0.34145252199823184,0.3312132661867531,0.3197120427752917,0.29445612435647883,0.2788802628449847,0.26361292763453975,0.24084332753852794,0.23243989590407726,0.22277865015845796,0.21498005138107087,0.2168498482209684,0.2127607071124334,0.20582981609211765,0.19761116557216984,0.19903051974146302,0.18352144302982212,0.20106106194188134,0.0,0.0,0.0,0.0,0.0,0.0,0.0,0.0,0.0,0.0,0.0,0.0,0.0,0.0,0.0,0.0,0.0,0.0,0.0,0.0,0.0,0.0,0.0,0.0
0.5755086654405057,0.4032594126991013,-0.1928887199303553,-0.1929123223080485,-0.10922293823490009,-0.19489957056060506,-0.19687948796225152,-0.19950234898670732,0.27059266545591876,0.36678224846112295,0.3765508941834888,0.37961746467767854,0.3744679805535722,0.36895936725953155,0.3615738749782101,0.36485111348413274,0.36164834208406627,0.3488802002179177,0.3390808572935588,0.32447499864528256,0.3160312200547053,0.3106572905397425,0.30057299749930677,0.27331017358295534,0.26013889556234776,0.25327452813408824,0.24180686765836754,0.22888364851144363,0.2207756636771712,0.20813122351148705,0.21440234473232725,0.22711092551925752,0.24939913024979501,0.27503518482102396,0.2915375328505073,0.314541651557299,0.3346874193373086,0.3457374095201229,0.34145252199823184,0.3312132661867531,0.3197120427752917,0.29445612435647883,0.2788802628449847,0.26361292763453975,0.24084332753852794,0.23243989590407726,0.22277865015845796,0.21498005138107087,0.2168498482209684,0.2127607071124334,0.20582981609211765,0.19761116557216984,0.19903051974146302,0.18352144302982212,0.20106106194188134,0.2157082252218465,0.24307119240054137,0.2768872709741186,0.28902267958922334,0.29664413326420386,0.27161502109595237,0.24203406651552523,0.21100449374339297,0.18787685211356378,0.17731423447467426,0.17929239282819806,0.19066192496250126,0.2067103983830181,0.23522149785329802,0.40113791115746195,0.5825840062592744,0.8685702112635582,0.17494154180850224,-0.1908344494174978,-0.3771998055754781,-0.013950011992565538,0.125673323037423,0.17134326499103264,0.18399836285562268,0.1730258928102994,0.17280635217783513,0.17866602762735004,0.18905460943813843,0.18211315488677868,0.1672244523961523,0.1725159856749766,0.16362904947100604,0.1624408935068972,0.16114740676167644,0.15350579983087012,0.13014820993103574,0.12388361991585438,0.11440781198506189,0.10172368859287222,0.08583358015443936,0.057366505540669126,0.03819373087391699,0.011132889919822652,0.008989707746331947,0.0020845009182404303,-0.020516853096584943,-0.03850581083343149,-0.04406895029428264,-0.03563772671296254,-0.00539087348914721,0.004507979290564406,0.030002404720930898,0.06017193872778883,0.09971730543462616,0.11584771640201696,0.1445057727265786,0.14508893903893832,0.14260357792149514,0.14174758683937513,0.14878028406078234,0.15746320854824636,0.14281154951126618,0.13295225875619357,0.1185203623284123,0.12920356703620017,0.1368900357102254,0.12752648955202853,0.1151773740903868,0.10609582811679186,0.10497228071489746,0.09775102463760657,0.0,0.0,0.0,0.0,0.0,0.0,0.0,0.0,0.0,0.0,0.0,0.0,0.0,0.0,0.0,0.0,0.0,0.0,0.0,0.0,0.0,0.0,0.0,0.0
