0.49850174313746437,0.6079392222604505,1.0,0.6690568244536726,0.42845426244300494,0.12746044561535758,-0.04946257031186311,-0.21307192076540923,-0.21119101771238394,-0.08382261061159105,-0.2092206453856965,-0.2091335605894115,0.20860466964663474,0.2967646138949394,0.352143912593561,0.3609442021696245,0.36318124054146006,0.35120348523399203,0.34810951055780953,0.33855621894124033,0.3271875285147735,0.32172085789698956,0.3160336200574862,0.3116896025345384,0.31486380260210084,0.30559051629802825,0.2946543980330298,0.2836129944576726,0.2786351688543137,0.26128682028684364,0.25003477387354994,0.23259261560675085,0.22896221063135644,0.22224194189895716,0.20936741726143085,0.2026490997068794,0.20209563230957128,0.20463945162908953,0.19644880730470196,0.19136766520109905,0.17709986615084714,0.170562630205461,0.15484516595606984,0.14378776187251957,0.13585396585289214,0.12489381695267998,0.11398225476510669,0.11388157758727777,0.10460158111315715,0.09997861758987525,0.08463418019938249,0.07547879155700234,0.055595425146102814,0.0434313996517419,0.034369806262950976,0.02379351901176307,0.016310819888740086,0.008841888743881898,0.004457210411462512,0.0031520322471253084,-0.0012288072179119395,-0.004077308770439081,-0.014623726171900659,-0.022109169589693875,-0.028074133013976658,-0.02790662352542241,-0.023142367700441688,-0.024540020793770344,-0.012104106843345019,0.0018736520884120973,0.01125307036760237,0.025269919338000598,0.03778394773209571,0.047267567836560206,0.05988098619129472,0.06179541674864646,0.06532091684411946,0.07661684829776032,0.08339108670991084,0.09180228421179186,0.09417030626785025,0.09665292904245228,0.09310668477168571,0.08968839550374015,0.08794162784960112,0.07710872690152965,0.06795795092795483,0.06203159284611092,0.059334009148884086,0.05064366636363598,0.045189893962803096,0.044513785027523144,0.04400582015109049,0.04213145062706107,0.0358183110852967,0.03121940530596636,0.028337171439310003,0.02102350500016746,0.021581319432641993,0.016174280275224294,0.015567491313302055,0.01822520238411447,0.022611585487444127,0.017965141689501425,0.019663401786656834,0.012331874057704617,0.012885497790891253,0.007487217923225098,0.01151425102149986,0.008054246889958497,0.004796343915083018,0.006354446942934231,0.008116857030292992,0.014697423269265732,0.024559567629300196,0.033091445323540976,0.031068298863514258,0.02464117164945355,0.02764893491306494,0.02317840398832851,0.029680978560197697,0.024092833287584527,0.03255308673149658,0.04276082112394032,0.05164053573904881,0.06995488575818991,0.08386472200655846,0.10259449505382133,0.1307554462422552,0.15296954769194748,0.16769648745709473,0.17954557528252865,0.1946628790652369,0.1945920228208364,0.18240201013485627,0.1888376110553923,0.18775160814053427,0.18682296572137114,0.1783537430250173,0.1684834348750989,0.1648882409611202,0.1537171656711036,0.14571993510536085,0.14549512024000158,0.14533979037471292,0.15907664021788806,0.16670051181791376,0.1758821912626566,0.18660364796445714,0.19423318202091924,0.2049013369535607,0.2139745086758352,0.2214308584982918,0.24108584757027648,0.2590770904641615,0.2738417693998284,0.32686847698032123,0.4212045207350021,0.5399068176011341,0.6106766996480146,0.9640631176743204,0.9696140724743622,0.5796218690377566,0.29068317292981666,0.02740580353776956,-0.24255116739840688,-0.2393966883452953,-0.23685145386219453,-0.2349212148653875,0.07393010553563732,0.16234592916259477,0.22563972644556388,0.2561614003186505,0.2708612716708223,0.27900039741107846,0.28676328687287284,0.27573150823417786,0.28283867470189344,0.2789003655378626,0.2777834515791693,0.2795150394497296,0.27797046031782785,0.27471163094951806,0.27744946479692595,0.27544234213890195,0.2717856257183131,0.25419733472038153,0.24422125536325526,0.23726076009032096,0.0,0.0,0.0,0.0,0.0,0.0,0.0,0.0,0.0,0.0,0.0,0.0,0.0,0.0,0.0,0.0,0.0,0.0,0.0,0.0,0.0,0.0,0.0,0.0,0.0,0.0,0.0,0.0,0.0,0.0,0.0,0.0,0.0,0.0,0.0,0.0,0.0,0.0,0.0,0.0,0.0,0.0,0.0,0.0,0.0,0.0,0.0,0.0,0.0,0.0,0.0,0.0,0.0,0.0,0.0,0.0,0.0,0.0,0.0,0.0,0.0,0.0,0.0,0.0,0.0,0.0,0.0,0.0,0.0,0.0,0.0,0.0,0.0,0.0,0.0,0.0,0.0,0.0,0.0,0.0,0.0,0.0,0.0,0.0,0.0,0.0,0.0,0.0,0.0,0.0,0.0,0.0,0.0,0.0,0.0,0.0,0.0,0.0,0.0,0.0,0.0,0.0,0.0,0.0,0.0,0.0,0.0,0.0,0.0,0.0,0.0
0.5399068176011341,0.6106766996480146,0.9640631176743204,0.9696140724743622,0.5796218690377566,0.29068317292981666,0.02740580353776956,-0.24255116739840688,-0.2393966883452953,-0.23685145386219453,-0.2349212148653875,0.07393010553563732,0.16234592916259477,0.22563972644556388,0.2561614003186505,0.2708612716708223,0.27900039741107846,0.28676328687287284,0.27573150823417786,0.28283867470189344,0.2789003655378626,0.2777834515791693,0.2795150394497296,0.27797046031782785,0.27471163094951806,0.27744946479692595,0.27544234213890195,0.2717856257183131,0.25419733472038153,0.24422125536325526,0.23726076009032096,0.2364059834116553,0.23705789036056746,0.2238530874982956,0.23063008840361443,0.22818482537153256,0.22267680014226426,0.2248771634356771,0.21172882662658327,0.20015108920340602,0.18861103239531454,0.18172512321440554,0.17027051590627285,0.16039942243682787,0.15518801015021558,0.1546364511242821,0.15105615832385563,0.138295368166102,0.1440286877484498,0.13442616730775114,0.11717224607144075,0.10763867430908364,0.09659507027552014,0.09018648037815273,0.08379429160687885,0.07279944001919385,0.06795840904706889,0.060038561875560836,0.0551828882436151,0.04415811135143385,0.03310664483071177,0.01894510171502642,0.007815509312291425,-0.0018281829680553252,-0.003844081621155495,-0.0028532959069224695,-0.02039013287804282,-0.013409569871169518,-0.01574447889000138,-0.019711348895078074,-0.019162769756038017,-0.02025023184112158,-0.027585808420848797,-0.022715699474814156,-0.025623400195646594,-0.016312735285096906,-0.002461834644578309,0.011327914803535044,0.032756133087907396,0.044920837444134755,0.05552142748064181,0.07225707820166599,0.07822514085081313,0.0903497313473524,0.09787783506216766,0.09620637215585956,0.10379572291875408,0.10527866064826182,0.11142658245126637,0.10994640952244725,0.11775884198084595,0.11641930761780846,0.11054659494937155,0.11244689356800087,0.1021363110067261,0.09038232525597681,0.08948950025922082,0.08101001535643199,0.08339792167032403,0.07512935277410585,0.074657537750806,0.07583378388319492,0.08173460497391467,0.07698497604156719,0.07234860621981709,0.06167525673692154,0.05726548669322724,0.046818000659303,0.04263276303177834,0.04009594113675221,0.042281472309475314,0.03996232032874558,0.03467441400815311,0.038716658791840046,0.02902306415623055,0.031730538301443234,0.032998331812847836,0.020523133257715966,0.011215802268934516,0.008148726152383597,0.008243849596558403,0.009960673180916726,0.0071458663618882284,0.012097208407657283,0.020198879876549208,0.016071824398693608,0.016626413936281857,0.012633797304295738,0.008703409896987849,0.010982220574217653,0.011778784967454674,0.00647679706625232,0.001223068408392868,-0.0024484117561068756,0.004684322880394791,0.00877952170575559,0.009833780397559284,0.003230860832000983,-0.000269557937692324,-0.000670989454751543,-0.008740098096557196,-0.0060291484392172206,-0.007916700710574879,-0.0036415995812840996,-0.005505887154332041,-0.0027473100618449113,-0.0015166548571964853,0.001261132708255629,-0.0021019254767884205,-0.0054554441179515585,-0.007261628141716584,-0.0013693743035948936,-0.006228435657918671,-0.0003109226690331823,-0.005141059868511036,0.000809663518343546,0.003705524071265952,0.006624357302201227,0.011106383560880687,0.011003806902282191,0.006319162387839355,-0.0044826665746421105,-0.0014104752888610098,-0.005987742339213008,-0.0028354930847000375,-0.0011757302022960018,-0.004079800458758213,-0.0007805692151342781,0.008726309306418063,0.007531692057289242,0.0017903418762239848,0.0038073704818802658,0.00282393112230588,0.001919527720036695,0.001098456808766195,0.0034401985937360406,0.010486631153310463,0.017629228826487174,0.014109026980734575,0.012230922356277742,0.010461371436866358,0.011879559455418489,0.011876636165028083,0.013531675093958744,0.012235707214326314,0.007992485743651322,0.014644072432258718,0.019893346279957133,0.028356676046720316,0.0,0.0,0.0,0.0,0.0,0.0,0.0,0.0,0.0,0.0,0.0,0.0,0.0,0.0,0.0,0.0,0.0,0.0,0.0,0.0,0.0,0.0,0.0,0.0,0.0,0.0,0.0,0.0,0.0,0.0,0.0,0.0,0.0,0.0,0.0,0.0,0.0,0.0,0.0,0.0,0.0,0.0,0.0,0.0,0.0,0.0,0.0,0.0,0.0,0.0,0.0,0.0,0.0,0.0,0.0,0.0,0.0,0.0,0.0,0.0,0.0,0.0,0.0,0.0,0.0,0.0,0.0,0.0,0.0,0.0,0.0,0.0,0.0,0.0,0.0,0.0,0.0,0.0,0.0,0.0,0.0,0.0,0.0,0.0,0.0,0.0,0.0,0.0,0.0,0.0,0.0,0.0,0.0,0.0,0.0,0.0,0.0,0.0,0.0,0.0,0.0,0.0,0.0,0.0,0.0,0.0,0.0,0.0,0.0,0.0,0.0
0.360429448157966,0.45715973694128365,0.882689977268234,0.6606138870079086,0.8933514205497725,0.7536354527991537,0.6104445736179336,0.32842190854409786,0.07050127800388141,-0.31713004641226156,-0.3148178196683634,-0.3131348770533327,-0.02608162694211833,0.042046599922649336,0.13115372169609923,0.2059136487081442,0.2509883917698025,0.2633397052005958,0.27068002106995465,0.2745813119606959,0.2735390037863442,0.27219753609223774,0.26751199755572885,0.271812082212423,0.2728246003844437,0.27057577641025066,0.26662806713989473,0.264080173179138,0.2583414788204401,0.255583224397548,0.24352419892169394,0.23755865291066888,0.2346284596461485,0.23013670798195035,0.23793647324471454,0.23497736084729975,0.2274221225774728,0.2245075286053828,0.21701805237544544,0.2065002212365869,0.19142428417828472,0.18256023076565747,0.16915074055809506,0.1619639331981412,0.1671542926708565,0.16473635035354806,0.15932534800555362,0.1447725272623055,0.1410674759205835,0.1374471252226634,0.13852366741937502,0.12584465800702138,0.10402090938246905,0.08688818452685489,0.07905614650920843,0.07129565424629608,0.058989961277931796,0.055973124280779,0.049939762193607025,0.053185760243057996,0.045717224630501915,0.04136712158956214,0.02629144934505783,0.011247545439694286,0.0023798260551500384,-0.0033929286721840557,-0.009151950505047326,-0.014902955608768491,-0.02372598398256499,-0.017173306960563985,-0.018310051042435774,-0.01944777857182155,-0.02365948887966725,-0.027865947219580803,-0.01976009138616632,-0.003945774889569289,-0.0034761336463740287,0.010874356851624816,0.016053265769153852,0.024372830494803325,0.04353241824705438,0.0627801147651151,0.07597657802988245,0.08159494202545992,0.08425834739143434,0.07936394698512218,0.07614684208344336,0.07461615733602243,0.0886190063696141,0.09356221386535164,0.10021688400498444,0.10859047671703875,0.10177638786509366,0.10284498285977259,0.09950139563411177,0.09175101897298019,0.09189952123101575,0.09687614566182756,0.10053448275223197,0.10287802514669034,0.10083456954806373,0.10209457471124099,0.10666001204529633,0.10991955258265029,0.11033652732484989,0.11406170084864611,0.1149445129714063,0.11144662310577368,0.10664190584560673,0.1143668549938022,0.11463030518267293,0.11819245190212463,0.12351214441378988,0.13366043092082194,0.1409445656234983,0.14382152095831535,0.15458593435028178,0.15170459815574702,0.14593306112784976,0.14495092022755113,0.1548994461159132,0.15885523518049602,0.16603325209971664,0.1733468941990691,0.17770872863778683,0.18218084237900575,0.18982443384221848,0.19601180736973872,0.20072710808549107,0.2039535010543633,0.21489872751326305,0.21047997960513146,0.2168164672862605,0.2308120120557697,0.25244454459962895,0.2770780516399676,0.2893120812340384,0.3152599051828571,0.38257094536162667,0.49275390455793633,0.8748798746244698,0.8800498052915638,0.8849372271639715,0.563529608588241,0.27865328552262214,-0.0004929621785852348,-0.1325009248530497,-0.1512483623506789,-0.3243151353917143,-0.32267924187973956,0.033565256663965516,0.1232671066229446,0.194016985099722,0.23508871824959962,0.25728151502726143,0.2790813921167669,0.2820707605643591,0.2847329552395617,0.28402354777378813,0.2830470726720492,0.2787562577832433,0.2804031887976527,0.268024221566996,0.2677822089648495,0.25971076470587967,0.2576692895547631,0.25245193620345147,0.2502275353433827,0.24640047896416012,0.24098669782149018,0.23553848730327792,0.23160693786393927,0.22305397909248656,0.21757875225458329,0.20289052709628339,0.20206220806552716,0.20280096256197153,0.18973775440504648,0.18286725600501688,0.17911924156447487,0.17542257094973235,0.1671676117963001,0.16665741760736136,0.16005506325995267,0.14274837015158284,0.13011311565415842,0.12368599368639456,0.10501429135171414,0.10331017299596648,0.0,0.0,0.0,0.0,0.0,0.0,0.0,0.0,0.0,0.0,0.0,0.0,0.0,0.0,0.0,0.0,0.0,0.0,0.0,0.0,0.0,0.0,0.0,0.0,0.0,0.0,0.0,0.0,0.0,0.0,0.0,0.0,0.0,0.0,0.0,0.0,0.0,0.0,0.0,0.0,0.0,0.0,0.0,0.0,0.0,0.0,0.0,0.0,0.0,0.0,0.0,0.0,0.0,0.0,0.0,0.0,0.0,0.0,0.0,0.0,0.0,0.0,0.0,0.0,0.0,0.0,0.0,0.0,0.0,0.0,0.0,0.0,0.0,0.0,0.0,0.0,0.0,0.0,0.0,0.0,0.0,0.0,0.0,0.0,0.0,0.0,0.0,0.0,0.0,0.0,0.0,0.0,0.0,0.0,0.0,0.0,0.0,0.0,0.0,0.0,0.0,0.0,0.0,0.0,0.0,0.0,0.0,0.0,0.0,0.0,0.0
0.38257094536162667,0.49275390455793633,0.8748798746244698,0.8800498052915638,0.8849372271639715,0.563529608588241,0.27865328552262214,-0.0004929621785852348,-0.1325009248530497,-0.1512483623506789,-0.3243151353917143,-0.32267924187973956,0.033565256663965516,0.1232671066229446,0.194016985099722,0.23508871824959962,0.25728151502726143,0.2790813921167669,0.2820707605643591,0.2847329552395617,0.28402354777378813,0.2830470726720492,0.2787562577832433,0.2804031887976527,0.268024221566996,0.2677822089648495,0.25971076470587967,0.2576692895547631,0.25245193620345147,0.2502275353433827,0.24640047896416012,0.24098669782149018,0.23553848730327792,0.23160693786393927,0.22305397909248656,0.21757875225458329,0.20289052709628339,0.20206220806552716,0.20280096256197153,0.18973775440504648,0.18286725600501688,0.17911924156447487,0.17542257094973235,0.1671676117963001,0.16665741760736136,0.16005506325995267,0.14274837015158284,0.13011311565415842,0.12368599368639456,0.10501429135171414,0.10331017299596648,0.08935660577899526,0.09082711578973456,0.08157890012332093,0.07237102096955322,0.055510973008609125,0.04175704868068196,0.0326416830635397,0.023546715911333338,0.005241033866018335,0.003858128431618494,-0.0005964341308133924,-0.006590753966559344,-0.00798008465587868,-0.02014540654171135,-0.02463981589790038,-0.021465654799787993,-0.027536487520733295,-0.029011906405021614,-0.018199274368997376,-0.012004744351390574,-0.002731194206372063,0.01116925212422719,0.017406360450685325,0.03290417679429419,0.04229713081808226,0.06558421025984215,0.073561099064724,0.0723878758524745,0.07898742787949875,0.07953034777095486,0.08478837936835573,0.07939372607338784,0.08641808321067543,0.0889552366367843,0.08854969973298485,0.0821327512005841,0.07432321016535728,0.07281467835851047,0.06069883974170457,0.05335654352966991,0.04156678928944387,0.04532264586262057,0.04156426848823279,0.03798351848395171,0.0422720493461061,0.03598218186534464,0.03295555479853042,0.03165766064568334,0.03209142376364261,0.023496433778790536,0.02125126264847813,0.01920801196358003,0.017369063597031224,0.021887089920080358,0.01892592020894407,0.019250820457883563,0.024401382223998697,0.025153924368133285,0.018435030282593582,0.021159913839777982,0.022566957314252477,0.021120016988574172,0.02758360938726066,0.028120599281250457,0.019656889965588824,0.028332580189599,0.038772561284132874,0.04021437282092153,0.04803450329697722,0.05762048388773397,0.05052123588476889,0.05287569488044774,0.05853301453449571,0.07825564710869082,0.09512901277705732,0.11530208995428493,0.14646097804459268,0.16861446051906887,0.1863721346974057,0.19665477165402578,0.2040701937756452,0.21168764354052835,0.20566178009544342,0.1967477503024351,0.1910868828108673,0.193281925896759,0.19255870605578113,0.1827548732777552,0.1776958710086862,0.16814227940131213,0.16484254637872967,0.17239389261426483,0.1738663616842045,0.1753930847142728,0.18003113022919848,0.19544947969206694,0.20163947498763118,0.22471937979104725,0.26466730679200856,0.29378350566062816,0.3427955748450338,0.4332040640682647,0.5373047167684973,0.6089399507484672,0.6465397996905338,0.6792831852691709,0.6041124858848216,0.3502562128484646,-0.17766168924484574,-0.08480679440297761,-0.16460890355685998,-0.15877366293007641,-0.1534127270492914,-0.14851725540596108,0.15730510709783188,0.2213202723074991,0.26190369966664295,0.28370380980902365,0.29751810038827636,0.30645466736601995,0.31977050565174503,0.3251947249972977,0.3289059959171164,0.3293933797790476,0.33283227659392467,0.3346332629635281,0.331742847962849,0.3349442372119035,0.3304174314629741,0.3289423029006507,0.3305338951802122,0.3259800274378626,0.3322060089284172,0.3353835863146861,0.3309084250369957,0.3264752866944865,0.3190141019020207,0.32390432851314704,0.0,0.0,0.0,0.0,0.0,0.0,0.0,0.0,0.0,0.0,0.0,0.0,0.0,0.0,0.0,0.0,0.0,0.0,0.0,0.0,0.0,0.0,0.0,0.0,0.0,0.0,0.0,0.0,0.0,0.0,0.0,0.0,0.0,0.0,0.0,0.0,0.0,0.0,0.0,0.0,0.0,0.0,0.0,0.0,0.0,0.0,0.0,0.0,0.0,0.0,0.0,0.0,0.0,0.0,0.0,0.0,0.0,0.0,0.0,0.0,0.0,0.0,0.0,0.0,0.0,0.0,0.0,0.0,0.0,0.0,0.0,0.0,0.0,0.0,0.0,0.0,0.0,0.0,0.0,0.0,0.0,0.0,0.0,0.0,0.0,0.0,0.0,0.0,0.0,0.0,0.0,0.0,0.0,0.0,0.0,0.0,0.0,0.0,0.0,0.0,0.0,0.0,0.0,0.0,0.0,0.0,0.0,0.0,0.0,0.0,0.0
0.6041124858848216,0.3502562128484646,-0.17766168924484574,-0.08480679440297761,-0.16460890355685998,-0.15877366293007641,-0.1534127270492914,-0.14851725540596108,0.15730510709783188,0.2213202723074991,0.26190369966664295,0.28370380980902365,0.29751810038827636,0.30645466736601995,0.31977050565174503,0.3251947249972977,0.3289059959171164,0.3293933797790476,0.33283227659392467,0.3346332629635281,0.331742847962849,0.3349442372119035,0.3304174314629741,0.3289423029006507,0.3305338951802122,0.3259800274378626,0.3322060089284172,0.3353835863146861,0.3309084250369957,0.3264752866944865,0.3190141019020207,0.32390432851314704,0.3180839134460696,0.31846669659677856,0.32197617119198285,0.31477106168275515,0.31068522206199256,0.31740054592891037,0.317995827303119,0.3216874159895864,0.3146261222952432,0.31832587068558826,0.3112463067268934,0.3025974170479447,0.2923620522384335,0.29282232297771293,0.28089415553922686,0.27961991112260565,0.2812886137648342,0.27665029276874814,0.27644232724382783,0.2683367635291892,0.25538023209824534,0.24061802174059146,-0.054286039785927644,-0.05430319561424643,-0.054679226883376474,-0.055436202086815656,0.21710120576611514,-0.05815521372519818,-0.06014155072166151,-0.06255717446936819,0.1929126948022189,0.18656488269095778,0.17671914733548608,0.17875404578427265,-0.08102091581350741,0.16619339317540852,-0.0913331024878568,-0.09709517922675115,0.17660025838274834,-0.10974897210397852,0.2063048821077456,0.2160773331676558,0.22404660639525897,0.22255772990093844,0.23163135098472615,0.23745987819695008,0.24929851145008303,0.24872452393452565,0.26036664811673593,0.26733726370653066,0.27427380146479324,0.27658677565852813,0.27583571572410587,0.26435318835645794,0.25292154068705786,0.24155862163928413,0.2364314020671848,0.23294246858954595,0.22495562903355004,0.20787112314862985,0.21245278850172064,0.2002715747474396,0.19286363802560325,0.18408739369547347,0.18010106587486913,0.16707320199492617,0.1557729951349453,0.1508184164698436,0.13991309532903512,0.1430494362763128,0.12486566546463063,0.12687912552943062,0.11526429968275145,0.11154851558636608,0.10650659188868129,0.10013836930308623,0.08936796274082384,0.08188216286344405,0.07614173368512271,0.06599423990544118,0.06066283186124622,0.05706955684143786,0.05521135208994347,0.052009676233719215,0.06129927482348816,0.05232433095838394,0.04199421691356114,0.03799246353495917,0.03262642535149894,0.02896644337193729,0.02393230893453048,0.022131651718284965,0.020483998567695387,0.02205915220737141,0.02223882976896296,0.021017427992139126,0.023002022326200314,0.01896121342196641,0.01196425999689292,0.005080325962368361,0.001378515408480966,-0.0006848828800908411,-0.001115990376652358,0.006229523047738293,0.005969740656801601,0.004249067450950064,0.010287071851079778,0.00562656161006856,0.0040998223718959345,-0.0019872412365741035,-0.004952778741655704,-0.009415523958492778,-0.009230563746095004,-0.009015266930850013,-0.005698142262622442,-0.00235722857929173,0.0025427665085582885,0.002849376154092481,9.810396961031351e-05,-0.002637964044876274,0.000789450889311472,0.002690508446096108,-0.010775022186227853,-0.0011690996957330543,-0.003857297603866961,-0.0034643894260241144,-0.004603538484040524,0.008101177266957195,0.011586201343163812,0.0012390963700083882,0.003199299733781024,-0.000984059777918344,-0.006697919855087686,-0.00779152806745263,-0.01041426875909958,-0.006876416367607994,-0.0017880290517722774,-0.0012961083454251985,0.008441270330074467,0.004363835453419553,0.012614365603939455,0.00551973533101768,0.0030722517846047633,-0.005487738175893416,-0.0017055669950554453,0.002122021525798994,-0.00015116784741165808,-0.003908164516722934,0.004693596284335392,0.008745117905995173,0.008250943211033904,0.012441151144199854,0.0074818298766243,0.010290938065550611,0.010109657536391573,0.0038671018328364968,0.008481090200001248,0.0,0.0,0.0,0.0,0.0,0.0,0.0,0.0,0.0,0.0,0.0,0.0,0.0,0.0,0.0,0.0,0.0,0.0,0.0,0.0,0.0,0.0,0.0,0.0,0.0,0.0,0.0,0.0,0.0,0.0,0.0,0.0,0.0,0.0,0.0,0.0,0.0,0.0,0.0,0.0,0.0,0.0,0.0,0.0,0.0,0.0,0.0,0.0,0.0,0.0,0.0,0.0,0.0,0.0,0.0,0.0,0.0,0.0,0.0,0.0,0.0,0.0,0.0,0.0,0.0,0.0,0.0,0.0,0.0,0.0,0.0,0.0,0.0,0.0,0.0,0.0,0.0,0.0,0.0,0.0,0.0,0.0,0.0,0.0,0.0,0.0,0.0,0.0,0.0,0.0,0.0,0.0,0.0,0.0,0.0,0.0,0.0,0.0,0.0,0.0,0.0,0.0,0.0,0.0,0.0,0.0,0.0,0.0,0.0,0.0,0.0
0.6292170137399066,0.41348176560441724,0.12679816926254964,-0.08018577180151318,-0.15522887270841146,-0.15063890208281464,-0.14638562122916565,-0.028687304797442643,-0.1388769246432496,0.15040115246559949,0.19338573962580713,0.21766978637735723,0.24326972966142843,0.2532985988400257,0.24778176990703302,0.24826970524764774,0.25017248555012966,0.25504933669258617,0.2567702505177294,0.267655103236709,0.27388334442133383,0.2785466483484239,0.2755097400705166,0.27093672498365423,0.27406552420436564,0.26953115801206,0.2650312258774261,0.2682619796153625,0.2730799761732979,0.26719004465038887,0.27058517807237215,0.2801930839958605,0.28063934397482876,0.2796120881167324,0.2847980433323065,0.27928099231835196,0.2815080163771001,0.2776352710793599,0.27226866407097855,0.27923829462900834,0.2723953881877529,0.2778680595662179,0.2771927592032597,0.28419407752389797,0.29116886610504883,0.2796493791110872,0.27114392736148535,0.2594826840061386,0.2600208193596129,0.2558226769965929,-0.05142888374292361,0.24542347888889157,0.24071556019821913,-0.04712249423552918,0.24294121334643315,0.2406092467876914,-0.044911769786818656,-0.04473124030640261,-0.0448580309161587,0.21608764362188967,-0.04607588146484705,0.20190787070220728,0.20046207827447832,-0.05041835264682849,0.19038205960311336,0.1878908172229803,-0.05789433816321027,0.17569381387336452,0.16906235047505622,-0.06856172488758772,-0.0728236502161297,-0.07743102225366551,-0.08236983103832547,-0.08761871066112575,0.19591969722442312,0.20552253917758698,0.21338095474335442,0.21799285489639547,0.2347686466871335,0.246828117875256,0.26035383189611766,0.27383913487151657,0.2750128947119376,0.26851617311271864,0.27743981631984416,0.2818206222298186,0.2801451611551851,0.27551138420915594,0.27409103504832405,0.2728288999648008,0.256367621718775,0.24778839479077036,0.23941919913133408,0.22819956565281949,0.22490619788292426,0.22032590210180375,0.22523311630833767,0.2257996307184011,0.215884092555254,0.2139455661974972,0.21230289381518075,0.2032738478505238,0.19916389548099026,0.19228873126509047,0.19033902028779165,0.19331648301743742,0.1919963084197098,0.1879158953200294,0.18876206910064805,0.18376955594922018,0.18523608776195558,0.18854491460675674,0.1829279738327138,0.17606741967946457,0.17410689511218405,0.17703877622057507,0.17870418202149113,0.18524411941465188,0.19203552533671292,0.19752960377291956,0.20017659853089015,0.19996336240481752,0.20148853720968168,0.2001241851360904,0.20046694073952495,0.207112437954541,0.21389213193883633,0.2161740389225125,0.22162587875175835,0.2317639038641944,0.2373400821258936,0.24909397883312345,0.2547000230628403,0.24951938159507323,0.2442879140556697,0.2666537954540965,0.33657599618728307,0.45863618703724746,0.5759104905222913,0.6668374585754286,0.6252849486745846,0.35434306391795245,0.06923089780143891,-0.0947892528932248,-0.15467750436354197,-0.15352411061607799,-0.15285579090960422,-0.15268081432864758,-0.15299292865759856,0.11069524414657649,0.20942953425351596,0.2647148135410702,0.2888855456832876,0.2896620808763686,0.2962896777730921,0.29342184431262486,0.28569936323545836,0.28544953334582945,0.28654706533603835,0.27363966284315777,0.2713511092683618,0.27662708039182915,0.26949833225766484,0.25920857383184626,0.25653776322328264,0.2507382096137065,0.23874892266900136,0.22673323817156255,0.21470291162079827,0.20574375811911255,0.2044781158889447,0.19553853818422906,0.19430848856018812,0.1869561168220789,0.17963735748242934,0.17850721027318334,0.16665582722059613,0.1579244005067395,0.15231491932320804,0.14214060006662693,0.13816505717414534,0.12501205159182419,0.11498139286311926,0.10960908902907507,0.10735537995458479,0.0974543776515362,0.08759081697003791,0.08391134885371676,0.07103583340780711,0.0,0.0,0.0,0.0,0.0,0.0,0.0,0.0,0.0,0.0,0.0,0.0,0.0,0.0,0.0,0.0,0.0,0.0,0.0,0.0,0.0,0.0,0.0,0.0,0.0,0.0,0.0,0.0,0.0,0.0,0.0,0.0,0.0,0.0,0.0,0.0,0.0,0.0,0.0,0.0,0.0,0.0,0.0,0.0,0.0,0.0,0.0,0.0,0.0,0.0,0.0,0.0,0.0,0.0,0.0,0.0,0.0,0.0,0.0,0.0,0.0,0.0,0.0,0.0,0.0,0.0,0.0,0.0,0.0,0.0,0.0,0.0,0.0,0.0,0.0,0.0,0.0,0.0,0.0,0.0,0.0,0.0,0.0,0.0,0.0,0.0,0.0,0.0,0.0,0.0,0.0,0.0,0.0,0.0,0.0,0.0,0.0,0.0,0.0,0.0,0.0,0.0,0.0,0.0,0.0,0.0,0.0,0.0,0.0,0.0,0.0
0.6252849486745846,0.35434306391795245,0.06923089780143891,-0.0947892528932248,-0.15467750436354197,-0.15352411061607799,-0.15285579090960422,-0.15268081432864758,-0.15299292865759856,0.11069524414657649,0.20942953425351596,0.2647148135410702,0.2888855456832876,0.2896620808763686,0.2962896777730921,0.29342184431262486,0.28569936323545836,0.28544953334582945,0.28654706533603835,0.27363966284315777,0.2713511092683618,0.27662708039182915,0.26949833225766484,0.25920857383184626,0.25653776322328264,0.2507382096137065,0.23874892266900136,0.22673323817156255,0.21470291162079827,0.20574375811911255,0.2044781158889447,0.19553853818422906,0.19430848856018812,0.1869561168220789,0.17963735748242934,0.17850721027318334,0.16665582722059613,0.1579244005067395,0.15231491932320804,0.14214060006662693,0.13816505717414534,0.12501205159182419,0.11498139286311926,0.10960908902907507,0.10735537995458479,0.0974543776515362,0.08759081697003791,0.08391134885371676,0.07103583340780711,0.05972285396888672,0.04535467234843226,0.026388445012837377,0.01819466463566114,0.014617339063930004,0.014113175075127273,0.01206361309085413,0.01000040950520966,0.00022968058666731147,-0.008028944417820013,-0.019394207121043054,-0.0277209099439189,-0.025324416223094642,-0.029119001962266893,-0.025264604653723124,-0.01990715173427814,-0.00996459069574438,-0.003116154292673197,0.006798241067840926,0.015175798571207636,0.031252057122971626,0.039660933596190634,0.04963773475713068,0.06580477916360973,0.06818259103127773,0.07676887805131666,0.07927147767549228,0.08953698629926744,0.09373486453803583,0.09956047820656683,0.0931823715609997,0.09152052374695037,0.07920491867171585,0.07622980523562209,0.06568671708416046,0.05680594950188362,0.05112948616679192,0.0471238334579514,0.04479283874159059,0.04260251713017719,0.039018659771985195,0.04173242461026322,0.03690842161065346,0.021474228518828846,0.015421188057254906,0.01875177932754054,0.013017244710233727,0.010520665518853433,0.014339478173134626,0.013712696778144205,0.016330423356678826,0.014506725022117285,0.015931553581655378,0.012918821962929861,0.010083136512556715,0.008963845713855225,0.009562650999868801,0.0026556291768518978,0.00669554866048486,-0.0013799445457192798,0.009182644294777687,0.021471445340850857,0.020112139472747155,0.017407039636167798,0.025658358216116586,0.021803497966751205,0.025832439119053117,0.02083273365627246,0.02371893036051834,0.029879120965924044,0.03316368197737767,0.04741159675387637,0.06032254004791981,0.07343431926536437,0.09135963346855296,0.12024841118282543,0.14318617461645342,0.16017140771617971,0.17120187849787413,0.18242494065874137,0.1846111255406596,0.1777556321683641,0.18184149276067635,0.18148612816260912,0.17206922645386477,0.16895832453321905,0.15984335953063403,0.14471419686119644,0.1327854825307554,0.12712075243580231,0.12617008864163565,0.12684534097519817,0.13989609812432982,0.1437817852237044,0.15386344715774627,0.16858784692142645,0.17563780175032612,0.18422163882509937,0.18509564752227073,0.1982295321674447,0.22052812208908734,0.23813207902584985,0.269470491402234,0.3498848199628737,0.4639744891583638,0.5655852413233321,0.628549255169674,0.6728237805208805,0.6353327061861228,0.4160942376254284,0.11808615940162094,-0.1818549671817516,-0.15934011308240278,-0.15574231581510087,-0.17107302270413877,-0.1684265663235657,0.11975846787873418,0.19687396758576448,0.2305529678325323,0.2515814188053953,0.2569169919648172,0.257354470575508,0.25753696677884436,0.2636439025784432,0.26801504258174724,0.2660640264458723,0.271654313367842,0.27712167934023996,0.279413331987863,0.2785502865962982,0.27455216138447214,0.2766627616274391,0.2756733602243255,0.26852423329882313,0.25830466514619593,0.2634785637864751,0.26406862985153146,0.2631601960993173,0.2622996783100425,0.26918256300130955,0.0,0.0,0.0,0.0,0.0,0.0,0.0,0.0,0.0,0.0,0.0,0.0,0.0,0.0,0.0,0.0,0.0,0.0,0.0,0.0,0.0,0.0,0.0,0.0,0.0,0.0,0.0,0.0,0.0,0.0,0.0,0.0,0.0,0.0,0.0,0.0,0.0,0.0,0.0,0.0,0.0,0.0,0.0,0.0,0.0,0.0,0.0,0.0,0.0,0.0,0.0,0.0,0.0,0.0,0.0,0.0,0.0,0.0,0.0,0.0,0.0,0.0,0.0,0.0,0.0,0.0,0.0,0.0,0.0,0.0,0.0,0.0,0.0,0.0,0.0,0.0,0.0,0.0,0.0,0.0,0.0,0.0,0.0,0.0,0.0,0.0,0.0,0.0,0.0,0.0,0.0,0.0,0.0,0.0,0.0,0.0,0.0,0.0,0.0,0.0,0.0,0.0,0.0,0.0,0.0,0.0,0.0,0.0,0.0,0.0,0.0
0.6728237805208805,0.6353327061861228,0.4160942376254284,0.11808615940162094,-0.1818549671817516,-0.15934011308240278,-0.15574231581510087,-0.17107302270413877,-0.1684265663235657,0.11975846787873418,0.19687396758576448,0.2305529678325323,0.2515814188053953,0.2569169919648172,0.257354470575508,0.25753696677884436,0.2636439025784432,0.26801504258174724,0.2660640264458723,0.271654313367842,0.27712167934023996,0.279413331987863,0.2785502865962982,0.27455216138447214,0.2766627616274391,0.2756733602243255,0.26852423329882313,0.25830466514619593,0.2634785637864751,0.26406862985153146,0.2631601960993173,0.2622996783100425,0.26918256300130955,0.26075109250046213,0.2523860790868632,0.24870385484225974,0.24355631347584908,0.23386929844674084,0.22733061187463116,0.23316448316731703,0.23291726565685517,0.22658530646800695,0.23107735111973243,0.2325490795125916,0.22638059596794893,0.22025161513851801,0.2141527366010659,0.204998265405097,0.1927766291056193,0.1928511966122475,0.1836820537212092,0.17909304456839656,0.17138074199512565,0.17744236953098366,0.17573437793701305,0.16470108701212272,0.16431229076763917,0.15302185057543222,0.1354219490340053,0.12994237334394945,0.12579789753883588,0.12450341901711608,0.11373483647641329,0.11499455205831005,0.11288207999996505,0.10737232591171074,0.11689079060859989,-0.19685998118161002,-0.20041695612209395,-0.20438273281815453,0.10184817011146595,0.10788026628620415,0.11972515430230486,0.12972417989763024,0.13944366999183103,0.15967488269121857,0.16738125292269962,0.18872850954575596,0.19452806566824266,0.20018069315867545,0.20263503163012087,0.20652670296514636,0.20726473606360118,0.2079451103647862,0.21012517234972886,0.2122860355047175,0.21290776269017883,0.21661974187473546,0.20959913687307563,0.2041611711892659,0.19416886071656775,0.18424737698454025,0.17748332404384537,0.16619920826610662,0.1611678082214478,0.15778510513801747,0.14683348450114278,0.14677128229330536,0.1422289743685098,0.1424378488778432,0.13202693667402646,0.12330129584321715,0.11011416472176866,0.10323172812008248,0.09804365393180241,0.09762707706489857,0.08660748259395068,0.09266257322676792,0.08657854315379111,0.08065623238661619,0.07028248506359616,0.06929490165704265,0.05309081536200726,0.04627030520602178,0.05498202514742035,0.04385928865898969,0.040576596321719546,0.04359389336288198,0.03907014905002034,0.03930325746929869,0.033526967837235036,0.030963589103774045,0.026996892872680686,0.023160882468147893,0.01945182959531082,0.014328293520298843,0.015474316057653618,0.012122707765328564,0.008882168175630596,0.007286142938140982,0.016556016464566996,0.01823639731322024,0.013860567512044049,0.012649701079962022,0.009986533021719687,-0.0018214581756296191,0.00028508873416999657,-0.002149401098120285,9.623547549794461e-05,-0.006820583722773326,-0.0029153153908550943,0.0010452990369177121,0.005057971523325942,0.006044215535468483,0.0009255192505865722,-0.0010758862984090777,-0.004576144417544648,-0.004965716396087537,-0.008397805231739294,-0.0010363859294296523,0.00020343160554086898,-0.004679801094937588,-0.0003115671701990814,-0.003606434504934725,0.0008105879415066709,0.0006380943983733553,-0.0010493586120923918,-0.004252411027306951,-0.007434006461025244,0.0017064918941991662,-0.004507085423001597,-0.007623017368653198,-0.0045651210715999865,-0.007632455819970127,0.00316588211107124,0.007844009030233738,0.004867185031937129,0.0034638074327096083,-0.0009761204981862643,-0.0038370330029647904,-0.0035784648615797485,-0.0017347796050363562,-0.004452790713958143,-0.002503180518972303,-0.0020321746815220015,0.003115012015845964,0.008330181405025897,0.007467523108258549,0.009757151442811524,0.00444038713862277,0.005360048293367197,0.006370174553069982,0.004399972032701529,0.010216984707699965,0.014599978303929135,0.020628440539076393,0.02369380295797072,0.033025763674578774,0.03017716291117149,0.0,0.0,0.0,0.0,0.0,0.0,0.0,0.0,0.0,0.0,0.0,0.0,0.0,0.0,0.0,0.0,0.0,0.0,0.0,0.0,0.0,0.0,0.0,0.0,0.0,0.0,0.0,0.0,0.0,0.0,0.0,0.0,0.0,0.0,0.0,0.0,0.0,0.0,0.0,0.0,0.0,0.0,0.0,0.0,0.0,0.0,0.0,0.0,0.0,0.0,0.0,0.0,0.0,0.0,0.0,0.0,0.0,0.0,0.0,0.0,0.0,0.0,0.0,0.0,0.0,0.0,0.0,0.0,0.0,0.0,0.0,0.0,0.0,0.0,0.0,0.0,0.0,0.0,0.0,0.0,0.0,0.0,0.0,0.0,0.0,0.0,0.0,0.0,0.0,0.0,0.0,0.0,0.0,0.0,0.0,0.0,0.0,0.0,0.0,0.0,0.0,0.0,0.0,0.0,0.0,0.0,0.0,0.0,0.0,0.0,0.0
0.27209040023032666,0.33426538840047665,0.4393157229018731,0.5472370738190244,0.6149477213886375,0.9330216793688152,0.93712615794513,0.6302968603597175,0.36613683691121574,0.08924528161211946,-0.28038198836275485,-0.27844039341894017,-0.2770512868918777,-0.048646882788212456,0.037779430535430925,0.11910817895751732,0.18461042253839346,0.2143310459899509,0.22829152347139625,0.24343706421751943,0.245959803313625,0.2451146081785973,0.2516927130668971,0.2503449838718568,0.2518601708113308,0.24396182285935344,0.2466617590155664,0.2507562424132221,0.2393523197038112,0.2278453130840732,0.2239413648161816,0.21535672168603068,0.2113328636569977,0.207271824197511,0.2093377565538345,0.2098554079017704,0.21344925180508514,0.2032163596661982,0.19915505487151106,0.1920483086683529,0.1819036763363385,0.17026534954813252,0.16328940036179818,0.16098066297027716,0.16026796185032252,0.15961691320996574,0.1590299285520224,0.15389583139096172,0.14575303662998368,0.14075197959691135,0.13274159377763756,0.11557010889815678,0.10768663712998884,0.10601335990980157,0.09824634043351668,0.09514506134915725,0.09209254772711017,0.09062173545082912,0.08457711676806211,0.0831786971638138,0.06643172318023047,0.052780941330807234,0.03453162318233571,0.034740709088768626,0.025724277804360995,0.01977574687925044,0.01227484226165827,0.015514754001598555,0.012574274717599724,0.006520875704134237,0.006572351922674387,0.0019577094805999615,-0.010406095203501959,-0.015150955884471122,-0.009208550814850008,-0.020261051598239748,-0.026786662718925623,-0.031863210014785336,-0.02780279814858442,-0.02229047112407083,-0.013783051871608184,-0.0038104389959899326,0.004561181653324777,0.005190792949394846,0.010388514574491345,0.020163667180173612,0.028375132937054497,0.035032079735784594,0.043218726860536565,0.05755671506967744,0.07190429258578623,0.08473220975164678,0.08989806748479974,0.09355981611848423,0.0972621665918217,0.09178618560269924,0.0863636131532916,0.09022573031484551,0.0895394368216411,0.08892234089442753,0.08991640978758307,0.08945037624000134,0.08906531331230721,0.07953867037109061,0.07932419087905589,0.06997290137531416,0.06532496110448333,0.0546186332931802,0.056306190600490434,0.05193731336209187,0.049200543170796966,0.045020985490697635,0.0363234997831699,0.03540868675059623,0.045351385670299824,0.04462471262267593,0.03169031318090547,0.03268634921728724,0.02916052174934591,0.021111527977980694,0.022376289012822577,0.02065247761777506,0.02208881429041724,0.028221126362159964,0.01905877783603523,0.016126100743464666,0.01634578566848654,0.012027652660855242,9.422994517700754e-05,0.0020695317612889432,-0.002037537256143048,-0.004541343397430894,-0.0023688492906273825,-0.004747359212909609,0.0006224004835353193,-9.89883424420927e-05,0.005388195844093847,0.006319734463070569,0.0026945584355899527,-0.0008756430121382514,-0.0120799672034436,-0.010930688852888486,-0.006653271135425418,-0.0007841556375988921,-0.005622328327349244,0.006510811821596825,0.006403324476748421,0.006358345885577011,0.004840610567591242,0.003390014519757164,-0.0010663603677921968,-0.0023758693474360978,-0.0036113461748791993,-0.0032326089944579913,-0.0012367295072157579,-0.0022332622201214846,-6.846770868724548e-05,0.009874008976892378,0.009146579771954337,0.005440750029878275,0.01259836590951853,0.010634120404924783,0.002626593037217986,0.00395508323366417,0.013085314308036932,0.010031830183573056,0.01632421849095925,0.018127294106083408,0.018519353264268224,0.017503408295179095,0.022770362104682026,0.03432304690863462,0.03063782818677653,0.033243605572227705,0.0344547894516928,0.026585623993848603,0.03270211378529241,0.03435502135048007,0.046922071664353034,0.055028885234878255,0.05867681430559824,0.06401732251400288,0.07105119357513691,0.08131648775202593,0.09173812014794754,0.09924059928374049,0.10536076489342293,0.11317255714261003,0.1288245826622792,0.0,0.0,0.0,0.0,0.0,0.0,0.0,0.0,0.0,0.0,0.0,0.0,0.0,0.0,0.0,0.0,0.0,0.0,0.0,0.0,0.0,0.0,0.0,0.0,0.0,0.0,0.0,0.0,0.0,0.0,0.0,0.0,0.0,0.0,0.0,0.0,0.0,0.0,0.0,0.0,0.0,0.0,0.0,0.0,0.0,0.0,0.0,0.0,0.0,0.0,0.0,0.0,0.0,0.0,0.0,0.0,0.0,0.0,0.0,0.0,0.0,0.0,0.0,0.0,0.0,0.0,0.0,0.0,0.0,0.0,0.0,0.0,0.0,0.0,0.0,0.0,0.0,0.0,0.0,0.0,0.0,0.0,0.0,0.0,0.0,0.0,0.0,0.0,0.0,0.0,0.0,0.0,0.0,0.0,0.0,0.0,0.0,0.0,0.0,0.0,0.0,0.0,0.0,0.0,0.0,0.0,0.0,0.0,0.0,0.0,0.0
0.3033857718899391,0.3815406002989749,0.49642511227963404,0.6126480906455922,0.8424251130059289,0.847452879793408,0.6768982312327616,0.4460404255718391,0.1471476057998618,-0.0537658955870235,-0.362784867402299,-0.36018716041985754,-0.05981841180652373,-0.009036073152787698,0.07049747947663107,0.1373006284485382,0.1837185296033963,0.21285882872067943,0.22014026981424661,0.24095804510324123,0.24766478408712872,0.2541270206091703,0.25729648720817955,0.26181162896083365,0.2584712347500334,0.25498634738106185,0.25445392739924805,0.24920648397603062,0.25002641362833156,0.24309332068715878,0.23764950887035283,0.2321728899869971,0.23744096067537754,0.2457788970942095,0.23874751175525144,0.23327111087142416,0.22628405066837545,0.2177947142853856,0.20781035344148144,0.19941232415130528,0.20183132991610558,0.18893235457986216,0.18839525504067367,0.18330864113165768,0.1859745167669308,0.181017229894723,0.16997376157120722,0.17744413728530803,0.16498607063881288,0.15412265676196504,0.13869942643197353,0.14177547587003783,0.1356685188586433,0.128060282898544,0.11740623734033917,0.10984919440618046,0.0976930095756923,0.09169214869764755,0.07953663963687047,0.07351759795093585,0.05363621218775922,0.049096395614254676,0.04143629764388033,0.02603219191945661,0.016711304517436274,0.008849571738191767,0.008586022767726574,0.012834062736625169,-0.0014817024043559468,-0.009771235202378945,-0.016658693500152033,-0.026767306873038972,-0.032417949243773975,-0.03361693481390508,-0.04266827115654928,-0.03958324290955498,-0.02743303074391153,-0.01851063473009226,-0.005117692550935575,0.0035323536404920763,0.005914531044883674,0.017417412181691103,0.030365590478810146,0.040158765546262375,0.0452716784353037,0.053404449210922474,0.06303139177215482,0.07877693953416415,0.08527645450544123,0.09484164423245996,0.09518224372592751,0.09399627003804396,0.09436847440601052,0.10399592798945853,0.10289849068296615,0.09569704855496586,0.09469995635440363,0.08915114082608178,0.09289560136851506,0.10286432864398683,0.10214947912543304,0.1045946276560142,0.09482850227422078,0.08823124073727272,0.08480654031394468,0.07533207730924732,0.07672424678357731,0.07360953781048367,0.06445242555362195,0.07078096664785946,0.0710701896973209,0.06378352565101178,0.05968482318373619,0.05262404907214268,0.05336443464929115,0.04499220870531515,0.03673247599626261,0.040885309586324685,0.03131068301247786,0.029533861057545716,0.02632801925906901,0.030917345100403847,0.03407473480968941,0.02657293002833937,0.02224845154299417,0.013411334391336682,0.010822661983912737,0.009867484328662341,0.005930797320215592,0.003623127323341315,0.012167760952601874,0.006960840745868498,0.004913557536229099,0.013711487545007539,0.010288249733872237,0.0023293271989216304,0.0005953448641922738,-0.005679436877222687,-0.011884794263020557,-0.00725957744602175,-0.004105457042492479,-0.005497834201281285,-0.0052861402452573595,-0.00039447747222753053,-4.721907342245876e-05,0.0019072655812209524,-0.0006801614691693305,-0.004733067914232894,-0.004099763559083027,-0.0033912850095349075,0.00046970377910131463,0.0013352812160310169,-0.0038672833688725293,0.001778028927571905,0.0028980750740044596,0.0010332661294478922,-0.002276001337450402,0.0021986472485932616,0.0006218531640888168,0.0037597928458041525,0.003927480006120692,-0.001947300537764205,0.0030519726436608204,0.008165266550777248,0.005707726193290109,0.015671195177252652,0.018069976070659095,0.02059503250820872,0.02017406133256677,0.026035429487983014,0.018193066991126196,0.022788672719319253,0.03059913198890223,0.03393881280744494,0.03434750999441759,0.04412802511738002,0.05405663512203469,0.05798458958314526,0.05745085096526669,0.06783246152134649,0.07221664692361622,0.0890550162776477,0.09528370847175668,0.1032031397148254,0.10666209018207314,0.12872316009029483,0.1447829206734395,0.15022605579936976,0.1558124917672787,0.0,0.0,0.0,0.0,0.0,0.0,0.0,0.0,0.0,0.0,0.0,0.0,0.0,0.0,0.0,0.0,0.0,0.0,0.0,0.0,0.0,0.0,0.0,0.0,0.0,0.0,0.0,0.0,0.0,0.0,0.0,0.0,0.0,0.0,0.0,0.0,0.0,0.0,0.0,0.0,0.0,0.0,0.0,0.0,0.0,0.0,0.0,0.0,0.0,0.0,0.0,0.0,0.0,0.0,0.0,0.0,0.0,0.0,0.0,0.0,0.0,0.0,0.0,0.0,0.0,0.0,0.0,0.0,0.0,0.0,0.0,0.0,0.0,0.0,0.0,0.0,0.0,0.0,0.0,0.0,0.0,0.0,0.0,0.0,0.0,0.0,0.0,0.0,0.0,0.0,0.0,0.0,0.0,0.0,0.0,0.0,0.0,0.0,0.0,0.0,0.0,0.0,0.0,0.0,0.0,0.0,0.0,0.0,0.0,0.0,0.0
0.28578680158236797,0.34587456864629657,0.44270298267945557,0.5454944019627123,0.8771724159699293,0.8826339895987056,0.887814573506571,0.5098131566335556,0.2221656143153387,-0.02437758293993554,-0.325194974489996,-0.14986095354268397,-0.31946646159085146,-0.04983731682126768,0.037867687874793464,0.1251199374089044,0.19042787158787094,0.21691209452259225,0.2353577538570042,0.251947366521076,0.2636366928484473,0.26584263680133163,0.26628155723522534,0.27113088715784756,0.26811556855401014,0.2695607339075834,0.2724142087786608,0.26900968101988604,0.25782986295123217,0.248119298286421,0.2460460483206725,0.24393856404137484,0.24027445274404813,0.2458308751081391,0.24063185774896315,0.2431401139922947,0.23799002804356484,0.22980352465734857,0.22627653190726746,0.21819026586879228,0.2070879876768881,0.20527504395734422,0.2050669896462978,0.19877835330466576,0.20024899104272456,0.19410342902170932,0.18956673831139426,0.1881750362914415,0.17147473625810744,0.16713920967026868,0.1597882648445057,0.15249203401647116,0.14831985048049337,0.1380395119939836,0.12625644442644104,0.1252633666227719,0.11813803008838575,0.10794631626157292,0.09929111252506655,0.08601159008786485,0.07424719678015024,0.06706175710496792,0.056755547887225366,0.051004476988978246,0.04057060551401553,0.03312930252426843,0.022517364517300142,0.019484985324688377,0.004030313499320493,-0.0054086839660083255,-0.00884521984519099,-0.01859276616389071,-0.031587988305951414,-0.032465012265684295,-0.03660689587037916,-0.03786725988685302,-0.03317144069600197,-0.03635474026956001,-0.021271796792966924,-0.015589676962105413,-0.010071107421921676,0.0045226662019496764,0.005141825712617957,0.017939622606849844,0.033704560076635526,0.047837841519632066,0.06035329171447638,0.06357651307763082,0.07750954568178016,0.09447737229436262,0.10526699150049451,0.1098905093059909,0.11450989192008257,0.11298578302270652,0.11762941335946077,0.10999951605516024,0.10855655531779448,0.1148468823772454,0.11657793596927787,0.11221975703739849,0.1110049800775877,0.11140250204488705,0.11188066486943767,0.09706888375752994,0.09311112364615132,0.08771094826303578,0.08087222885704609,0.07874878466067722,0.07519325746853275,0.07328347513885321,0.07148409965981167,0.07748500640976576,0.07437416719308068,0.06522792263880359,0.06081022467811256,0.05497113612204529,0.050785995538076334,0.046717076734219515,0.03661360968473078,0.03892613693197657,0.03520269872003361,0.02851749354660134,0.034245316972632736,0.030858502741371703,0.027581146061345027,0.02594920467559882,0.01981051524848192,0.016851154409660313,0.010918730024883215,0.006623942146281513,0.008577436232335988,0.006013858275882816,0.0004685844593241182,0.011928120510891267,0.014251070778091695,0.00897271939051125,0.009929052299129009,0.006354464437832892,0.0043968640757766075,-0.0020966453669554515,-0.0039030161086653714,-0.005637370897685899,-0.007301671792039278,0.0003282345080478157,0.004950842076861546,0.005027819789669276,0.008246391575088281,0.006917789876703027,-0.0020340041900798233,-0.006309077752869083,-0.013596080958589498,-0.008519115072878463,-0.0064529224255500854,-0.0027826797807724564,-0.0036561273172369415,-0.0013823711477153277,0.00404184677414886,0.008007125916190906,0.007441642171605603,0.005423917936331722,0.003494841763503792,-0.0014175148171135018,0.004528465230562949,0.004422600914656157,0.009031428023643942,0.009132703983285494,0.015492897311913915,0.01735207798003497,0.0193262048396017,0.022955956712990454,0.020556335983993035,0.022893389871738296,0.025357096467741327,0.023337319396567843,0.02452456857404831,0.025846060787262475,0.03499206664260091,0.04273916453562295,0.04447654780533486,0.057119548979227566,0.06068095897181171,0.06746281242631406,0.0759284708698261,0.08146576524619026,0.0994509031066088,0.10374457553943615,0.11125968214712613,0.12199504082872757,0.1359489131848786,0.0,0.0,0.0,0.0,0.0,0.0,0.0,0.0,0.0,0.0,0.0,0.0,0.0,0.0,0.0,0.0,0.0,0.0,0.0,0.0,0.0,0.0,0.0,0.0,0.0,0.0,0.0,0.0,0.0,0.0,0.0,0.0,0.0,0.0,0.0,0.0,0.0,0.0,0.0,0.0,0.0,0.0,0.0,0.0,0.0,0.0,0.0,0.0,0.0,0.0,0.0,0.0,0.0,0.0,0.0,0.0,0.0,0.0,0.0,0.0,0.0,0.0,0.0,0.0,0.0,0.0,0.0,0.0,0.0,0.0,0.0,0.0,0.0,0.0,0.0,0.0,0.0,0.0,0.0,0.0,0.0,0.0,0.0,0.0,0.0,0.0,0.0,0.0,0.0,0.0,0.0,0.0,0.0,0.0,0.0,0.0,0.0,0.0,0.0,0.0,0.0,0.0,0.0,0.0,0.0,0.0,0.0,0.0,0.0,0.0,0.0
0.22396460407472393,0.2791028970320585,0.3694938382776295,0.47974024682451033,0.5652287581593083,0.6074827518554846,0.6495266467264444,0.8912166809003595,0.3853587554655012,0.09137414232253575,-0.11071065090620531,-0.18403471674057692,-0.3192909321084192,-0.10749200314806069,-0.02527596488507068,0.064230416598042,0.13337993653394042,0.17297622861832518,0.1984238058007082,0.21128794643811788,0.22389611321070713,0.22397316620540245,0.2299947787204318,0.22660837822713778,0.23382496481861684,0.23321448968123967,0.22940968439545364,0.22396692120007092,0.22305421518926158,0.217462495276656,0.22104552462370924,0.2092160632145652,0.21273924465110655,0.20856327424413132,0.21053761283845507,0.20637153567443492,0.20683721482326423,0.20579222751793075,0.19863071343994163,0.19765934629019322,0.19211985709711402,0.18047856839996118,0.17965200175382717,0.1773414402636879,0.1735480418512577,0.1698096743656427,0.16920093455033317,0.17018278019666713,0.17121532309130977,0.16768263083783835,0.16111830150158804,0.14690470819636633,0.14502496459796724,0.13240874409002878,0.1244249107962005,0.11491531391210409,0.11002195358555414,0.1066606755802352,0.10635956545384403,0.09527020911476551,0.08722040009623805,0.0760486993307405,0.06020602155253128,0.050443674329119274,0.03291111804441124,0.02912228345959007,0.022151020915413905,0.016597388025531068,0.013986138379298801,0.0004659762331998302,-0.007062531395107313,-0.011687576067559362,-0.013421485136423874,-0.02765144198017571,-0.032861035705960724,-0.0367455645912107,-0.043922011845778666,-0.04824069340872781,-0.03585976945502881,-0.022147153351052985,-0.010166578708326079,-0.006054868427992493,0.002503280028901629,0.017060567971657066,0.022256121212647004,0.03194331631867932,0.043061855595428356,0.06638965134332739,0.08041487122707057,0.09437728365496281,0.11136586842257941,0.12063076372773657,0.12679751728484226,0.1329534770198922,0.12527179389076856,0.1160640968760557,0.12379177513374214,0.11925014182893694,0.11628659693648821,0.11644717110378779,0.11666452364146289,0.121558714797252,0.11883565851574839,0.11003903065931184,0.10286229945038301,0.09423520647409558,0.08723736554245957,0.08341032265685908,0.07968239772807027,0.08220707342281638,0.06946069457315092,0.06450949737896858,0.07043061448697703,0.06723690647749629,0.06261762120045497,0.05811128378287564,0.05371850962908151,0.05097722022157023,0.04219948864273093,0.03199790616559874,0.03421043287332584,0.03192293616766583,0.02974746528251537,0.03229590983709025,0.03341683427112607,0.028496238179402635,0.02675832378386876,0.01743839457556836,0.020523552945794145,0.01448570495984443,0.013161376660900692,0.011935862048498896,0.00926958258447849,0.006698093320555332,0.007294499595125777,0.004906293448559237,0.007219300160067628,0.003468160862274956,-0.0017365530627617433,-0.0022466909391963504,-0.01036509673376241,-0.012255258189466624,-0.00023006490349947894,-0.0019659648191713737,-0.00516187152419876,0.004021084794953107,-0.0020928448044076715,0.0010988562057781823,0.0012965839435851113,0.0015766953787403786,-0.008822828713289004,-0.003761696210271647,-0.0016890792244566681,-0.005677826161019317,0.00118813128710549,0.001998274859413599,0.009056416412018644,0.005452021752385457,0.005026444097764415,0.0031698497901765177,0.00911074975076277,0.009013689532514392,0.0013439422114209097,0.0014802987755514268,0.007887980512736717,0.012881814770940015,0.01800216926578236,0.023251750669217516,0.02555798237316615,0.02184817151079553,0.024425463771294918,0.027141735987875323,0.02692393613561562,0.028386859653881606,0.039220360631545215,0.037899815165905675,0.04595310902107386,0.05569360240481041,0.06866000556689118,0.0833155570198932,0.1027359418801458,0.1084700758018858,0.10666790691313477,0.12039240397206248,0.11889012018653562,0.12829808228235623,0.1378504033044841,0.1367805548074676,0.14199805851651945,0.0,0.0,0.0,0.0,0.0,0.0,0.0,0.0,0.0,0.0,0.0,0.0,0.0,0.0,0.0,0.0,0.0,0.0,0.0,0.0,0.0,0.0,0.0,0.0,0.0,0.0,0.0,0.0,0.0,0.0,0.0,0.0,0.0,0.0,0.0,0.0,0.0,0.0,0.0,0.0,0.0,0.0,0.0,0.0,0.0,0.0,0.0,0.0,0.0,0.0,0.0,0.0,0.0,0.0,0.0,0.0,0.0,0.0,0.0,0.0,0.0,0.0,0.0,0.0,0.0,0.0,0.0,0.0,0.0,0.0,0.0,0.0,0.0,0.0,0.0,0.0,0.0,0.0,0.0,0.0,0.0,0.0,0.0,0.0,0.0,0.0,0.0,0.0,0.0,0.0,0.0,0.0,0.0,0.0,0.0,0.0,0.0,0.0,0.0,0.0,0.0,0.0,0.0,0.0,0.0,0.0,0.0,0.0,0.0,0.0,0.0
0.25313031633416716,0.30672278430317734,0.40938973097328424,0.5226680344356666,0.5957917527561011,0.9239515734437039,0.9289803165997843,0.5770153912138423,0.29393095511721795,0.028943324340345532,-0.13034895762771195,-0.2808590881657198,-0.13047593294934157,-0.27579253083584276,0.03662031970413529,0.1225651671455636,0.17888724848382564,0.21945718837185568,0.23661836414203816,0.24731460199430957,0.24542459551788487,0.24327696134408974,0.2424359125391185,0.24138925251517213,0.24016116913948224,0.24646262650598474,0.2510898249222428,0.249450522286467,0.25078959075908364,0.2428243023636002,0.23940981796365798,0.23287373141707893,0.22784321260934212,0.22586907378808282,0.2131250216389391,0.20653556619404786,0.2061105888799105,0.21185893844519732,0.2130252566434807,0.2111538990103874,0.20778815595526107,0.19985747221417005,0.19505343002455652,0.1856906459905674,0.185609114333507,0.18250875803336183,0.18407732827426074,0.1734001175430482,0.1673886239009816,0.16142712552442334,0.15704945018498973,0.15578861851866924,0.14995128610663927,0.14260650602913802,0.12452180853322592,0.11567834689070768,0.10530471907247739,0.0964673143690351,0.08300641573972509,0.08182577332622051,0.08061438618084123,0.07628642403460079,0.06114286364280146,0.04901065321293271,0.03834046889223189,0.022969951870890192,0.012112517982687896,0.005755888404085714,-0.005337856058606104,-0.007342713859618362,-0.01103372251035053,-0.011809255618451458,-0.023517798203052,-0.026179587442944675,-0.03210215565255385,-0.04128977500874988,-0.03836770163768207,-0.03255881529036814,-0.028469560882389944,-0.02147771043431645,-0.010033524627619445,0.007414776238720706,0.024731941877596333,0.04347066810098573,0.05749554388819068,0.06682132740354618,0.08068806914122774,0.08988432587365337,0.09596142737504895,0.10508304390179114,0.11572438273015263,0.12328493245199998,0.1231636030372859,0.13074744428101492,0.13374615073749532,0.12755674639678088,0.13063953603707248,0.12762706069178448,0.12313996444636507,0.11718546334717879,0.10823256110617452,0.10090006204635797,0.09673103605874252,0.09726804853403125,0.09175240813099973,0.09556407995626849,0.09333063766254954,0.08966793333186918,0.08611615912387852,0.07345188241640836,0.06551518952539469,0.06076983316142747,0.05767923845914904,0.057781719973222685,0.05492732068915241,0.04911618122221587,0.04649855408946083,0.050149252957842116,0.04161650611723663,0.04088820697609113,0.03412491489926716,0.033626127598678945,0.027089626008172024,0.02220177918066798,0.018960837547991403,0.012752150629290773,0.011261746216273882,0.016025201801521834,0.017814862126730942,0.013553378345962049,0.010926488981119026,0.008394284979653574,0.0028792060219791633,-0.001008367009948759,-0.00942124407235857,-0.0008353999039317206,-0.0029290065321510702,-0.003402644122080562,-0.005332580929097331,-0.001031585515233137,0.0002745171721411248,0.006273563166805941,5.184097646159693e-05,-0.00762765283632647,-0.009077115237384692,-0.004296001738486786,-0.005583678602206121,-0.002175154452050071,-0.00021847044258602644,0.003364118718851903,0.0008872026374679577,0.004654110347586792,0.0085170068323992,-0.0059727392722028205,0.0011648701991872404,0.0007185522655043412,0.0003793373515737573,-0.002924924152694324,-0.0015032073119227484,0.0015726142349064413,0.0109187928264728,0.01423800995785742,0.02229684204907809,0.022797844811201975,0.029582605259173535,0.033428646899812356,0.026650941961505057,0.029241034952084747,0.025825614529026802,0.02870796256731276,0.03174007219873086,0.04261216272659697,0.04748794186955851,0.050982063900569884,0.05770894565287617,0.06459476587643594,0.0685654147764794,0.08192242593034131,0.08467746076182134,0.10143207348579768,0.11680988243041658,0.12312198193642378,0.13266763854486682,0.1408319402063563,0.15376248797546374,0.1637678090357191,0.16161806512361906,0.16114654865551586,0.17003535741906248,0.0,0.0,0.0,0.0,0.0,0.0,0.0,0.0,0.0,0.0,0.0,0.0,0.0,0.0,0.0,0.0,0.0,0.0,0.0,0.0,0.0,0.0,0.0,0.0,0.0,0.0,0.0,0.0,0.0,0.0,0.0,0.0,0.0,0.0,0.0,0.0,0.0,0.0,0.0,0.0,0.0,0.0,0.0,0.0,0.0,0.0,0.0,0.0,0.0,0.0,0.0,0.0,0.0,0.0,0.0,0.0,0.0,0.0,0.0,0.0,0.0,0.0,0.0,0.0,0.0,0.0,0.0,0.0,0.0,0.0,0.0,0.0,0.0,0.0,0.0,0.0,0.0,0.0,0.0,0.0,0.0,0.0,0.0,0.0,0.0,0.0,0.0,0.0,0.0,0.0,0.0,0.0,0.0,0.0,0.0,0.0,0.0,0.0,0.0,0.0,0.0,0.0,0.0,0.0,0.0,0.0,0.0,0.0,0.0,0.0,0.0
0.2782973084828689,0.32747719817021054,0.42108164219748523,0.5267948364074215,0.6092236779653506,0.6698747492926623,0.9424286785159586,0.6211474194029646,0.3456290500957973,0.06816284733623239,-0.2712644133559524,-0.15145476939891542,-0.12750213230691745,-0.07025552299706896,-0.2626277477549389,0.10570626860448669,0.17526660573384048,0.21055595464217797,0.23313586173977058,0.2568788374841493,0.25875390742329524,0.26493190501798997,0.27236803390220393,0.2780161730503822,0.27882883959680005,0.27329475722946117,0.26143885212676404,0.25558545707006836,0.248068841396759,0.25582354267042945,0.2419669758996975,0.2372695288975767,0.24021085031573983,0.2369686293814681,0.2306329172483184,0.23198056339966747,0.22257292809703155,0.21779733766016424,0.2115136526598713,0.21295661102620408,0.20983354023664333,0.20061387942776834,0.1945291950106107,0.19158447051924488,0.19024612020717613,0.18129161723259063,0.18932460948412755,0.18820714945075842,0.17332669588271454,0.15698332947500723,0.14993866765457486,0.13681440014362095,0.13913378620125164,0.13229150197677098,0.12243346064241943,0.11878010718211444,0.10902492152816264,0.09316156278908179,0.08963430456390249,0.07998463541360015,0.06574235197734127,0.04689925433652181,0.03728518357211826,0.02459060348074765,0.01649454768282317,0.006837557134400191,0.012524039837696434,0.00894326047312233,-0.0008388394764300211,-0.013756363244370991,-0.019055351201393553,-0.035194872920956924,-0.03604188531494797,-0.03543751428175393,-0.04260667183687701,-0.04370695391306168,-0.026429505443821406,-0.006138058624728723,0.007956551690034395,0.011256863665635785,0.028379711741758823,0.03935157167056035,0.056488306632099534,0.06289124699130276,0.08625174307477147,0.09121936873454321,0.09779674540930186,0.10445968555658035,0.12198428572693147,0.1319317841152058,0.1435395484175063,0.14913072369048797,0.14102773729306384,0.14230420362239607,0.14220590597590585,0.13459070603377624,0.11946614098503373,0.12759100775704266,0.12514444729353985,0.13212084479399205,0.13468683377457483,0.12823396695480022,0.12352908996594514,0.12672561736567156,0.12860037972025762,0.11839197733330123,0.12377828337133628,0.12477108336861496,0.11521991367931302,0.11511282959027695,0.11676057086610389,0.12784926805317678,0.13300051837612334,0.13067364952457142,0.13624088716608415,0.13278427427351588,0.13413710530715292,0.13260565792160262,0.13279631216269291,0.13623959177877518,0.14139016326745318,0.14362681865918506,0.15370360937954625,0.15623472593193147,0.1573599431859958,0.16475585147235802,0.16457190143761347,0.17063345937178104,0.16293794274431792,0.17222260479896576,0.18002079178276448,0.1924665349832238,0.1941666126995871,0.19740358032110375,0.21138382913477274,0.22993679706375766,0.2484284617466695,0.2683740376765075,0.33434020297257694,0.43861400830781927,0.5550296730390405,0.9018970883533535,0.699623154438398,0.684680543705451,0.4864688535427792,0.17721208869882565,-0.06631160726988375,-0.1626559682120568,-0.30867341923511343,-0.30757619467358654,0.006700862420950924,0.10525844989920898,0.18801803690485094,0.23809944081162288,0.26629827832576713,0.28033378238713524,0.2848486611750001,0.2691082548537888,0.27157957165161073,0.25538603916022506,0.25745436553401524,0.25935650315180675,0.25803908346653154,0.25659782768697903,0.2489015870189609,0.25034428256345787,0.24710425485624102,0.23765936578841576,0.22509903163359324,0.22481225344530256,0.2168221841862669,0.19806441573846895,0.182387018853498,0.17594909078789728,0.17414564042096237,0.17390839352112805,0.1675554152248468,0.15970467420335066,0.16266128452376238,0.1641280155763395,0.1625699998870705,0.156451549341866,0.13808577643826367,0.12899934747332864,0.12304149889256273,0.10944803224095032,0.1051308732786622,0.09624946783384007,0.0874138956953798,0.0,0.0,0.0,0.0,0.0,0.0,0.0,0.0,0.0,0.0,0.0,0.0,0.0,0.0,0.0,0.0,0.0,0.0,0.0,0.0,0.0,0.0,0.0,0.0,0.0,0.0,0.0,0.0,0.0,0.0,0.0,0.0,0.0,0.0,0.0,0.0,0.0,0.0,0.0,0.0,0.0,0.0,0.0,0.0,0.0,0.0,0.0,0.0,0.0,0.0,0.0,0.0,0.0,0.0,0.0,0.0,0.0,0.0,0.0,0.0,0.0,0.0,0.0,0.0,0.0,0.0,0.0,0.0,0.0,0.0,0.0,0.0,0.0,0.0,0.0,0.0,0.0,0.0,0.0,0.0,0.0,0.0,0.0,0.0,0.0,0.0,0.0,0.0,0.0,0.0,0.0,0.0,0.0,0.0,0.0,0.0,0.0,0.0,0.0,0.0,0.0,0.0,0.0,0.0,0.0,0.0,0.0,0.0,0.0,0.0,0.0
0.43861400830781927,0.5550296730390405,0.9018970883533535,0.699623154438398,0.684680543705451,0.4864688535427792,0.17721208869882565,-0.06631160726988375,-0.1626559682120568,-0.30867341923511343,-0.30757619467358654,0.006700862420950924,0.10525844989920898,0.18801803690485094,0.23809944081162288,0.26629827832576713,0.28033378238713524,0.2848486611750001,0.2691082548537888,0.27157957165161073,0.25538603916022506,0.25745436553401524,0.25935650315180675,0.25803908346653154,0.25659782768697903,0.2489015870189609,0.25034428256345787,0.24710425485624102,0.23765936578841576,0.22509903163359324,0.22481225344530256,0.2168221841862669,0.19806441573846895,0.182387018853498,0.17594909078789728,0.17414564042096237,0.17390839352112805,0.1675554152248468,0.15970467420335066,0.16266128452376238,0.1641280155763395,0.1625699998870705,0.156451549341866,0.13808577643826367,0.12899934747332864,0.12304149889256273,0.10944803224095032,0.1051308732786622,0.09624946783384007,0.0874138956953798,0.08477135203943151,0.07755503199213942,0.0795992529763818,0.061685238871262156,0.06071047084713465,0.04591786972604997,0.02806516191172601,0.013297054314751817,0.004682920250719958,0.003754469915358018,-0.0017949796215483132,-0.013508953620409181,-0.016017243838043427,-0.01701230819957674,-0.018034696453596608,-0.03599930852534528,-0.04015383537150685,-0.03203207734091656,-0.02853998651398325,-0.012753345962713844,0.006115629751516177,0.02193113090438442,0.05315886334691399,0.07674931414045184,0.08964146080174212,0.11337544325445242,0.12951344071551824,0.12269225879384567,0.12521355120353214,0.13555123223632665,0.14141541367406826,0.13974110934999523,0.14591378563539792,0.14917906740793238,0.14646983314929338,0.15163177842636574,0.15083312703418772,0.14254211768565248,0.1344518147355782,0.12349139338604108,0.11581493638760379,0.10681273259170847,0.10417526485186229,0.10636690215034916,0.09801312288178815,0.09910359620193547,0.09426277860528494,0.0973289671256237,0.09292565142557159,0.0825893975034399,0.07861948317143645,0.08408919348722128,0.08208266416132436,0.08489794651558252,0.08791911847798449,0.09268022002515992,0.09610206163436599,0.09356739374716623,0.09429685600615646,0.09520984714021664,0.10091327756691362,0.10525040521242472,0.10513917670572609,0.10364739896214137,0.10537994983570392,0.11647878557804582,0.11848378938755555,0.12829898466434173,0.13515106296688495,0.13287886426252257,0.1291589224746177,0.1270543172284316,0.12962748235461335,0.13225223323925867,0.14106491357320508,0.15297562597856376,0.16335617111828443,0.17834076121934056,0.19637480855488298,0.2112900437904764,0.22460519889060956,0.24398833590792596,0.28171918377285454,0.31317393224390333,0.36754324469443,0.4617154455513838,0.5818250888336226,0.6663389243103814,0.7259878344513401,0.9329470166638625,0.5952587297746565,0.2956281779532647,0.023245288122532952,-0.28497977651175765,-0.28313626416842574,-0.28184011295889777,-0.02584480151913752,0.07126843027749898,0.1556059728057929,0.2118262134660683,0.23996272797471913,0.2554239992630057,0.2659293272755817,0.27458394493332433,0.26604059589535384,0.2633905667659002,0.2558966879851594,0.2466588427518338,0.24185082805037247,0.23841962776345035,0.23177341988500835,0.23577034992596935,0.23197787520369542,0.22963901360648012,0.2164692702489332,0.214010128011651,0.20689966819863714,0.19822606167837575,0.1926140414556034,0.18546176959718777,0.1798544282727561,0.1788762723430876,0.17484748095466618,0.16931291868017448,0.1638165758548903,0.15682640298031122,0.14065914493668186,0.12915711535653937,0.11617316832698199,0.10324749532249808,0.0857693204133607,0.07604091441289358,0.06483776640351059,0.056773354974394084,0.03647207827618034,0.026997966457565126,0.016050144711205017,0.009778762855044856,-0.002579672524221541,0.0,0.0,0.0,0.0,0.0,0.0,0.0,0.0,0.0,0.0,0.0,0.0,0.0,0.0,0.0,0.0,0.0,0.0,0.0,0.0,0.0,0.0,0.0,0.0,0.0,0.0,0.0,0.0,0.0,0.0,0.0,0.0,0.0,0.0,0.0,0.0,0.0,0.0,0.0,0.0,0.0,0.0,0.0,0.0,0.0,0.0,0.0,0.0,0.0,0.0,0.0,0.0,0.0,0.0,0.0,0.0,0.0,0.0,0.0,0.0,0.0,0.0,0.0,0.0,0.0,0.0,0.0,0.0,0.0,0.0,0.0,0.0,0.0,0.0,0.0,0.0,0.0,0.0,0.0,0.0,0.0,0.0,0.0,0.0,0.0,0.0,0.0,0.0,0.0,0.0,0.0,0.0,0.0,0.0,0.0,0.0,0.0,0.0,0.0,0.0,0.0,0.0,0.0,0.0,0.0,0.0,0.0,0.0,0.0,0.0,0.0
0.6663389243103814,0.7259878344513401,0.9329470166638625,0.5952587297746565,0.2956281779532647,0.023245288122532952,-0.28497977651175765,-0.28313626416842574,-0.28184011295889777,-0.02584480151913752,0.07126843027749898,0.1556059728057929,0.2118262134660683,0.23996272797471913,0.2554239992630057,0.2659293272755817,0.27458394493332433,0.26604059589535384,0.2633905667659002,0.2558966879851594,0.2466588427518338,0.24185082805037247,0.23841962776345035,0.23177341988500835,0.23577034992596935,0.23197787520369542,0.22963901360648012,0.2164692702489332,0.214010128011651,0.20689966819863714,0.19822606167837575,0.1926140414556034,0.18546176959718777,0.1798544282727561,0.1788762723430876,0.17484748095466618,0.16931291868017448,0.1638165758548903,0.15682640298031122,0.14065914493668186,0.12915711535653937,0.11617316832698199,0.10324749532249808,0.0857693204133607,0.07604091441289358,0.06483776640351059,0.056773354974394084,0.03647207827618034,0.026997966457565126,0.016050144711205017,0.009778762855044856,-0.002579672524221541,-0.011799947484000628,-0.004043813109028911,0.0007009745499137099,0.0024357998540068698,0.004237236928744062,0.004569057816839343,0.004970206644008848,-0.00685876502066102,-0.014002994401842703,-0.008772546949092082,-0.018840880423144628,-0.013451947078227095,-0.01105100159191441,0.0037451052542454566,-0.0028825197831324006,-0.0001737300200370316,0.007267172471274241,0.02406148193045613,0.034841700011587116,0.04576656094564314,0.044543465139979546,0.052706710130201354,0.06872642121568695,0.083384476989297,0.09053760568097287,0.09173010177123776,0.10080658012933354,0.10854724745509227,0.12572056266515946,0.13234250924807553,0.13456758487765513,0.14008722214976005,0.13660342457261349,0.13949423464100896,0.13646027240993608,0.13519021671292517,0.137221677543771,0.13640360577221772,0.14657302240933592,0.1508143337562994,0.15066237286429054,0.1507264119820097,0.15253977677710612,0.14994705611220205,0.15216804249696964,0.14843302245608653,0.15257306782751182,0.1584297520343783,0.16291907890366628,0.16141866347900244,0.16621886918914622,0.16039491631226524,0.162385916627829,0.15987824724885774,0.16054622960850243,0.15668741940274405,0.15597453594234917,0.15531633865883368,0.15930879028400055,0.1725470769679594,0.185787218605528,0.18670917908695225,0.19220632942365945,0.1976447541968739,0.20761515676373282,0.2313200421613826,0.2564345244668783,0.2813957375992176,0.3261658861890832,0.3937922049079423,0.47040673461730403,0.5421395472176529,0.6012687491141737,0.6508329124564688,0.5816230487250778,0.3182540411970319,-0.28231638688799005,-0.15458114877011306,-0.17806608039334257,-0.2789724190446507,0.03012900897224895,0.1419250759029605,0.211750434106363,0.25348013593336466,0.27330019180973597,0.2896961178373147,0.27809935784836487,0.2708309826745166,0.2602331601511825,0.2663234433815426,0.25991499199598816,0.2533347431417141,0.2481451579488017,0.2474450275082102,0.24664391901214183,0.24730054896603476,0.2386716275789851,0.2361517713454316,0.22899526061358758,0.21568077478036982,0.20237383143935897,0.204464449587822,0.19582652721984706,0.19492324241048245,0.19100245804486585,0.18253664219948326,0.18029808101527725,0.1689190051618918,0.15763228997205994,0.13875640320296168,0.1307481672384146,0.11516139144997901,0.09507558435268644,0.08279525846217135,0.07524848457021246,0.06782532285770275,0.06667863370526597,0.06104737538638424,0.0540085424927116,0.048638824379025246,0.03571386728064265,0.024460233853879874,0.014878728378156344,0.008507629466315397,0.006885141337558528,0.006936635769159636,0.022501013093213004,0.03205241636298622,0.026365649203428432,0.014666514592527673,0.013868666852992671,0.0024457711101246154,0.00038653227991168886,-0.0015346930077878055,-0.0063931635174034945,-0.009576009044562211,-0.009544945303543304,0.0,0.0,0.0,0.0,0.0,0.0,0.0,0.0,0.0,0.0,0.0,0.0,0.0,0.0,0.0,0.0,0.0,0.0,0.0,0.0,0.0,0.0,0.0,0.0,0.0,0.0,0.0,0.0,0.0,0.0,0.0,0.0,0.0,0.0,0.0,0.0,0.0,0.0,0.0,0.0,0.0,0.0,0.0,0.0,0.0,0.0,0.0,0.0,0.0,0.0,0.0,0.0,0.0,0.0,0.0,0.0,0.0,0.0,0.0,0.0,0.0,0.0,0.0,0.0,0.0,0.0,0.0,0.0,0.0,0.0,0.0,0.0,0.0,0.0,0.0,0.0,0.0,0.0,0.0,0.0,0.0,0.0,0.0,0.0,0.0,0.0,0.0,0.0,0.0,0.0,0.0,0.0,0.0,0.0,0.0,0.0,0.0,0.0,0.0,0.0,0.0,0.0,0.0,0.0,0.0,0.0,0.0,0.0,0.0,0.0,0.0
0.6508329124564688,0.5816230487250778,0.3182540411970319,-0.28231638688799005,-0.15458114877011306,-0.17806608039334257,-0.2789724190446507,0.03012900897224895,0.1419250759029605,0.211750434106363,0.25348013593336466,0.27330019180973597,0.2896961178373147,0.27809935784836487,0.2708309826745166,0.2602331601511825,0.2663234433815426,0.25991499199598816,0.2533347431417141,0.2481451579488017,0.2474450275082102,0.24664391901214183,0.24730054896603476,0.2386716275789851,0.2361517713454316,0.22899526061358758,0.21568077478036982,0.20237383143935897,0.204464449587822,0.19582652721984706,0.19492324241048245,0.19100245804486585,0.18253664219948326,0.18029808101527725,0.1689190051618918,0.15763228997205994,0.13875640320296168,0.1307481672384146,0.11516139144997901,0.09507558435268644,0.08279525846217135,0.07524848457021246,0.06782532285770275,0.06667863370526597,0.06104737538638424,0.0540085424927116,0.048638824379025246,0.03571386728064265,0.024460233853879874,0.014878728378156344,0.008507629466315397,0.006885141337558528,0.006936635769159636,0.022501013093213004,0.03205241636298622,0.026365649203428432,0.014666514592527673,0.013868666852992671,0.0024457711101246154,0.00038653227991168886,-0.0015346930077878055,-0.0063931635174034945,-0.009576009044562211,-0.009544945303543304,-0.0016855850185800705,0.010929382682931222,0.023689832169577905,0.03967356633600086,0.04965749655093277,0.06133189879580188,0.07316122095699332,0.08975999079977157,0.11420477364870285,0.1295829297786852,0.14973318113261613,0.16542965221984332,0.17820889532596235,0.1911442322229008,0.1950073205613626,0.20517040842438464,0.2062528361665333,0.20132407790545348,0.20882854284054322,0.20569452441678931,0.20421399453211234,0.19822673699669024,0.21693623714637605,0.21727794735744863,0.21922769734332975,0.22123387754339702,0.21251820245098085,0.21920359962026517,0.22128403497662003,0.21720353804253778,0.23308177134301694,0.2596725887897177,0.29849185532759714,0.34644134763488804,0.4296356859878209,0.5080711031683725,0.5894071794524843,0.6505490220687145,0.9051886729371049,0.5983290414387541,0.2742376672428072,-0.04252856411936269,-0.3181885584971582,-0.15454677912775805,-0.3173381137224777,0.003753782409606504,0.11530589244788926,0.19725006925189706,0.23270521992374016,0.2586051475259513,0.26267939928797485,0.2649457587399785,0.2608191498616394,0.2534011550768076,0.24732964934817728,0.24724124063266706,0.24547052716220166,0.24050125750087606,0.236966339398523,0.2394974780986878,0.24042442093647143,0.22131254131743086,0.20677871629363292,0.19837476683553715,0.18535070694327432,0.18001950826204188,0.1793172493375686,0.18171670525263514,0.17646417469621523,0.17586899729265723,0.1630252942881617,0.15331583691040376,0.15135940481843327,0.13871006157321494,0.12767304663055695,0.11978972945380596,0.12121363104485541,0.10888333739967714,0.11201511402226275,0.10139600988536829,0.08932762302020096,0.07734786803576471,0.0731445994413218,0.05211575568033318,0.02963642197269059,0.014931036421133775,0.009535905773325666,-0.00038870422418688447,-0.001005836081705076,-0.00461763817071631,-0.011225390231533024,-0.014679546790467901,-0.014979882500135072,-0.018275163994577136,-0.016874365107658634,-0.02153588314778529,-0.01841496620518319,-0.010578379441706682,-0.004166331866607219,0.016208325341218115,0.025955624304971617,0.0496886084132172,0.05974190570022202,0.07304019816041929,0.08651911282899961,0.10326429807853627,0.12174817978225821,0.1373674742227173,0.16396944855668696,0.17542317060414156,0.1748112243950865,0.17751608992042137,0.18661860003817657,0.18828513704540567,0.19020750303046935,0.18623818894470262,0.17791671787489236,0.17446966488984744,0.17128434576344695,0.17297278372880578,0.16723258261678264,0.17405001072077872,0.17189539103726065,0.16691491573532244,0.17447949731466308,0.0,0.0,0.0,0.0,0.0,0.0,0.0,0.0,0.0,0.0,0.0,0.0,0.0,0.0,0.0,0.0,0.0,0.0,0.0,0.0,0.0,0.0,0.0,0.0,0.0,0.0,0.0,0.0,0.0,0.0,0.0,0.0,0.0,0.0,0.0,0.0,0.0,0.0,0.0,0.0,0.0,0.0,0.0,0.0,0.0,0.0,0.0,0.0,0.0,0.0,0.0,0.0,0.0,0.0,0.0,0.0,0.0,0.0,0.0,0.0,0.0,0.0,0.0,0.0,0.0,0.0,0.0,0.0,0.0,0.0,0.0,0.0,0.0,0.0,0.0,0.0,0.0,0.0,0.0,0.0,0.0,0.0,0.0,0.0,0.0,0.0,0.0,0.0,0.0,0.0,0.0,0.0,0.0,0.0,0.0,0.0,0.0,0.0,0.0,0.0,0.0,0.0,0.0,0.0,0.0,0.0,0.0,0.0,0.0,0.0,0.0
0.5894071794524843,0.6505490220687145,0.9051886729371049,0.5983290414387541,0.2742376672428072,-0.04252856411936269,-0.3181885584971582,-0.15454677912775805,-0.3173381137224777,0.003753782409606504,0.11530589244788926,0.19725006925189706,0.23270521992374016,0.2586051475259513,0.26267939928797485,0.2649457587399785,0.2608191498616394,0.2534011550768076,0.24732964934817728,0.24724124063266706,0.24547052716220166,0.24050125750087606,0.236966339398523,0.2394974780986878,0.24042442093647143,0.22131254131743086,0.20677871629363292,0.19837476683553715,0.18535070694327432,0.18001950826204188,0.1793172493375686,0.18171670525263514,0.17646417469621523,0.17586899729265723,0.1630252942881617,0.15331583691040376,0.15135940481843327,0.13871006157321494,0.12767304663055695,0.11978972945380596,0.12121363104485541,0.10888333739967714,0.11201511402226275,0.10139600988536829,0.08932762302020096,0.07734786803576471,0.0731445994413218,0.05211575568033318,0.02963642197269059,0.014931036421133775,0.009535905773325666,-0.00038870422418688447,-0.001005836081705076,-0.00461763817071631,-0.011225390231533024,-0.014679546790467901,-0.014979882500135072,-0.018275163994577136,-0.016874365107658634,-0.02153588314778529,-0.01841496620518319,-0.010578379441706682,-0.004166331866607219,0.016208325341218115,0.025955624304971617,0.0496886084132172,0.05974190570022202,0.07304019816041929,0.08651911282899961,0.10326429807853627,0.12174817978225821,0.1373674742227173,0.16396944855668696,0.17542317060414156,0.1748112243950865,0.17751608992042137,0.18661860003817657,0.18828513704540567,0.19020750303046935,0.18623818894470262,0.17791671787489236,0.17446966488984744,0.17128434576344695,0.17297278372880578,0.16723258261678264,0.17405001072077872,0.17189539103726065,0.16691491573532244,0.17447949731466308,0.17613208773934833,0.18109150599863819,0.1770493375370466,0.18398579166801854,0.19266585640103692,0.1861656166436593,0.18446251320440266,0.196769879621547,0.1923226146213781,0.2018584984645191,0.21306164402990513,0.2259159279807262,0.23271617849898496,0.23959446389838474,0.24345610910417584,0.24889322424225613,0.24819592908123064,0.26440503161545104,0.2636690233796681,0.2721013426326165,0.275836596788486,0.2856095789082472,0.3013905264277328,0.3108474756581338,0.3139477290347565,0.3398713708128028,0.413184125605049,0.5200101028025831,0.6003434468380632,0.652604374208182,0.6475333602697165,0.47437499572412395,0.1669047172578376,-0.22726604060634686,-0.22538683027929177,-0.16576221677087039,-0.22369011007518044,-0.223880640088434,0.1488986076016123,0.24121543627417633,0.2868301628758223,0.321151932413386,0.34422373314724136,0.34686136777053883,0.33986767410747787,0.33711894894460537,0.3309634368457901,0.32297327658771674,0.31625654876447873,0.3016189460270398,0.294466125897114,0.28406309501359756,0.2765869506652845,0.2720629832871202,0.2659023104755167,0.25966507605034267,0.2518349010507277,0.2424317048250141,0.23301174418163273,0.22359246713589673,0.2049645768368378,0.19713199452842647,0.19088328057447468,0.17854360631341493,0.17703873482077112,0.17100400712757416,0.16044984541711474,0.15307380002561494,0.142734249328729,0.12943919287148445,0.11627110979684904,0.10938702532101263,0.10110501359327564,0.08989298836618542,0.08498153430937505,0.06638645057026127,0.057175817157204226,0.05581583599281702,0.04847165004387954,0.04129687944770572,0.03121932217579902,0.025929746157419095,0.01313000697550086,0.011273763256116094,0.0034498853796537717,0.00042392678036749033,-0.0008769460682565679,-0.001987972177772762,-0.005981903884452352,-0.003630531590462454,-0.002618640397628283,0.0001325059348796725,1.390924576180686e-05,-0.012196219192591274,-0.008817348947094017,-0.0006077068086722119,0.00782570461827198,0.016488730365263323,0.03153756287367702,0.05759071550664284,0.0,0.0,0.0,0.0,0.0,0.0,0.0,0.0,0.0,0.0,0.0,0.0,0.0,0.0,0.0,0.0,0.0,0.0,0.0,0.0,0.0,0.0,0.0,0.0,0.0,0.0,0.0,0.0,0.0,0.0,0.0,0.0,0.0,0.0,0.0,0.0,0.0,0.0,0.0,0.0,0.0,0.0,0.0,0.0,0.0,0.0,0.0,0.0,0.0,0.0,0.0,0.0,0.0,0.0,0.0,0.0,0.0,0.0,0.0,0.0,0.0,0.0,0.0,0.0,0.0,0.0,0.0,0.0,0.0,0.0,0.0,0.0,0.0,0.0,0.0,0.0,0.0,0.0,0.0,0.0,0.0,0.0,0.0,0.0,0.0,0.0,0.0,0.0,0.0,0.0,0.0,0.0,0.0,0.0,0.0,0.0,0.0,0.0,0.0,0.0,0.0,0.0,0.0,0.0,0.0,0.0,0.0,0.0,0.0,0.0,0.0
0.6475333602697165,0.47437499572412395,0.1669047172578376,-0.22726604060634686,-0.22538683027929177,-0.16576221677087039,-0.22369011007518044,-0.223880640088434,0.1488986076016123,0.24121543627417633,0.2868301628758223,0.321151932413386,0.34422373314724136,0.34686136777053883,0.33986767410747787,0.33711894894460537,0.3309634368457901,0.32297327658771674,0.31625654876447873,0.3016189460270398,0.294466125897114,0.28406309501359756,0.2765869506652845,0.2720629832871202,0.2659023104755167,0.25966507605034267,0.2518349010507277,0.2424317048250141,0.23301174418163273,0.22359246713589673,0.2049645768368378,0.19713199452842647,0.19088328057447468,0.17854360631341493,0.17703873482077112,0.17100400712757416,0.16044984541711474,0.15307380002561494,0.142734249328729,0.12943919287148445,0.11627110979684904,0.10938702532101263,0.10110501359327564,0.08989298836618542,0.08498153430937505,0.06638645057026127,0.057175817157204226,0.05581583599281702,0.04847165004387954,0.04129687944770572,0.03121932217579902,0.025929746157419095,0.01313000697550086,0.011273763256116094,0.0034498853796537717,0.00042392678036749033,-0.0008769460682565679,-0.001987972177772762,-0.005981903884452352,-0.003630531590462454,-0.002618640397628283,0.0001325059348796725,1.390924576180686e-05,-0.012196219192591274,-0.008817348947094017,-0.0006077068086722119,0.00782570461827198,0.016488730365263323,0.03153756287367702,0.05759071550664284,0.0854281742281358,0.11351762022152023,0.1295631310871356,0.14125697308693416,0.1455275882250591,0.14699069539375492,0.14872368921273177,0.1491904394444426,0.15607965204045468,0.16016572401961077,0.1599102551754603,0.1614620276458995,0.16328104084458164,0.16075129360583507,0.15848154816634408,0.15339177983335803,0.1439387681409787,0.14856728191412277,0.14266866451525118,0.1462238188736236,0.1530737917870893,0.1524461090306231,0.1643194637021087,0.16408148426567623,0.1670964900875655,0.16258883733850749,0.1751467693024303,0.16785385093534025,0.1775974099198792,0.17822247265110588,0.18662588330564406,0.19663964542885343,0.20363242607127055,0.21373508552735854,0.2284646760256699,0.2262732316004285,0.233277139634873,0.2386893369158428,0.23172159384447888,0.23233642006710545,0.23435602383398985,0.24082703152085908,0.2701708640692549,0.3469581248239348,0.45578055377590804,0.5427882402607245,0.6140952634603076,0.6419858626543247,0.5280117614548294,0.2429133221012649,-0.02269541447887898,-0.23196128538406174,-0.2296340307846764,-0.22792695019682363,-0.22684319232979214,0.12113258658550372,0.20868977033892736,0.2557441264686517,0.28847320310523067,0.30076374033212516,0.2972642123089339,0.2979975557224876,0.29377088488128095,0.2846154039135902,0.28747441107379457,0.2870002522127922,0.2816822055207664,0.2823088872633863,0.2796787490455794,0.27073921746621,0.2662746904417379,0.2570794559428212,0.2539352268163795,0.23994569108937164,0.2335779897082697,0.23023411437218982,0.2237772922557055,0.22037037243956553,0.22002469857968338,0.2104497394033636,0.2085681995716917,0.19747460553600205,0.18332639042553164,0.1707424033618965,0.16126538356557346,0.1548996199104291,0.14242301513585184,0.13460145373284457,0.128361738365994,0.1190924020580246,0.10833172256134267,0.10223017207012426,0.09002411813940502,0.08247577005766779,0.07189572737768395,0.056744563811748076,0.038557686862704554,0.03424618665651243,0.028431431204235285,0.02418577690112393,0.013818261543119393,0.01270175151617898,0.006994708057677964,-0.00023090812323887927,-0.0059031712909671675,-0.003874940504443812,-0.014137656809420718,-0.018242477267467114,-0.022340762016249457,-0.01720617181216005,-0.016674194558100278,-0.008439540782561839,0.00442869668851296,0.01732463015096263,0.03333033293010924,0.038614228747596895,0.04087092755771237,0.05394523278197224,0.059392214160794043,0.0,0.0,0.0,0.0,0.0,0.0,0.0,0.0,0.0,0.0,0.0,0.0,0.0,0.0,0.0,0.0,0.0,0.0,0.0,0.0,0.0,0.0,0.0,0.0,0.0,0.0,0.0,0.0,0.0,0.0,0.0,0.0,0.0,0.0,0.0,0.0,0.0,0.0,0.0,0.0,0.0,0.0,0.0,0.0,0.0,0.0,0.0,0.0,0.0,0.0,0.0,0.0,0.0,0.0,0.0,0.0,0.0,0.0,0.0,0.0,0.0,0.0,0.0,0.0,0.0,0.0,0.0,0.0,0.0,0.0,0.0,0.0,0.0,0.0,0.0,0.0,0.0,0.0,0.0,0.0,0.0,0.0,0.0,0.0,0.0,0.0,0.0,0.0,0.0,0.0,0.0,0.0,0.0,0.0,0.0,0.0,0.0,0.0,0.0,0.0,0.0,0.0,0.0,0.0,0.0,0.0,0.0,0.0,0.0,0.0,0.0
0.6419858626543247,0.5280117614548294,0.2429133221012649,-0.02269541447887898,-0.23196128538406174,-0.2296340307846764,-0.22792695019682363,-0.22684319232979214,0.12113258658550372,0.20868977033892736,0.2557441264686517,0.28847320310523067,0.30076374033212516,0.2972642123089339,0.2979975557224876,0.29377088488128095,0.2846154039135902,0.28747441107379457,0.2870002522127922,0.2816822055207664,0.2823088872633863,0.2796787490455794,0.27073921746621,0.2662746904417379,0.2570794559428212,0.2539352268163795,0.23994569108937164,0.2335779897082697,0.23023411437218982,0.2237772922557055,0.22037037243956553,0.22002469857968338,0.2104497394033636,0.2085681995716917,0.19747460553600205,0.18332639042553164,0.1707424033618965,0.16126538356557346,0.1548996199104291,0.14242301513585184,0.13460145373284457,0.128361738365994,0.1190924020580246,0.10833172256134267,0.10223017207012426,0.09002411813940502,0.08247577005766779,0.07189572737768395,0.056744563811748076,0.038557686862704554,0.03424618665651243,0.028431431204235285,0.02418577690112393,0.013818261543119393,0.01270175151617898,0.006994708057677964,-0.00023090812323887927,-0.0059031712909671675,-0.003874940504443812,-0.014137656809420718,-0.018242477267467114,-0.022340762016249457,-0.01720617181216005,-0.016674194558100278,-0.008439540782561839,0.00442869668851296,0.01732463015096263,0.03333033293010924,0.038614228747596895,0.04087092755771237,0.05394523278197224,0.059392214160794043,0.060293024592738685,0.07356688972663664,0.08076801115054796,0.09112696204076451,0.09696034875299543,0.09980990181570001,0.10275446359018689,0.10272199084988227,0.09971511986508093,0.0875855867577499,0.06787261224722368,0.07132931518217732,0.07027980293367589,0.06626216228348288,0.06696451515272064,0.06162349253657944,0.05792655022279439,0.05279765943948416,0.044698098416609704,0.039776864568801674,0.03649474864723168,0.030237149249561706,0.024077265672677397,0.02723853256609172,0.02126752477030825,0.023075403528815645,0.02035888769020435,0.02080333697576119,0.024406026139367577,0.020400949476066355,0.021085928769670373,0.00954434774197082,0.007299400549949636,0.006659897571575739,-6.538731218473705e-05,-0.0005789572701394961,-0.001034468874422232,0.004715249380521151,0.0028287110250738083,0.004065952166866175,0.005348625058633038,0.01128634479631524,0.003424750213827539,-0.0028634503255848182,0.0016440478791988262,3.067876899245551e-05,-0.0015561824167285583,-4.435386106948762e-05,-0.0015870857173663092,0.004575939055189085,0.004603642117053721,0.003106081864109963,0.0031556970394362176,0.0032121209519214125,-0.0028778187718108733,0.003334235587752394,-0.004293387260300683,-0.008849669509445102,-0.0118743450964868,-0.007218324066661411,-0.005644951382947657,0.006684659885956245,0.008245210346085559,0.00980089650663721,-0.0009480758681444522,0.0006007692117436976,-0.0009275146959157967,-0.008607103960439327,0.000627055950840397,0.0006377449384785626,-0.0024227309057882787,0.011436301032392186,0.006852264681446385,0.00535360226825092,0.002329578970271324,0.0070078029083022785,-0.006748852040404277,-0.009724068192249097,-0.004990416049150159,-0.0002323322303273387,-5.858599628905135e-05,0.0016852519061719095,0.006540826392152218,0.00836179077752204,0.008689748846986508,0.0013782794033299025,0.007957657223273207,0.000755057885151961,0.002838306120597402,0.004985693559490176,-0.0020245023598196607,0.0048755001990112385,0.002625776362248867,0.0019935028397126326,0.009133053308560022,0.016360421767093757,0.012916363279163283,0.015718290529190136,0.003243635754944812,0.006248038178920283,0.009359221767629164,0.011043248958733596,0.008228538759193436,0.013219421305657657,0.02601941251533433,0.026643205958610874,0.036620474242833656,0.03750324425989106,0.030832116049014355,0.028910678575367162,0.025591207028412163,0.027026605120966288,0.03783205197521786,0.044171431965208945,0.04297161674687541,0.05114801336870732,0.06101426786761669,0.0,0.0,0.0,0.0,0.0,0.0,0.0,0.0,0.0,0.0,0.0,0.0,0.0,0.0,0.0,0.0,0.0,0.0,0.0,0.0,0.0,0.0,0.0,0.0,0.0,0.0,0.0,0.0,0.0,0.0,0.0,0.0,0.0,0.0,0.0,0.0,0.0,0.0,0.0,0.0,0.0,0.0,0.0,0.0,0.0,0.0,0.0,0.0,0.0,0.0,0.0,0.0,0.0,0.0,0.0,0.0,0.0,0.0,0.0,0.0,0.0,0.0,0.0,0.0,0.0,0.0,0.0,0.0,0.0,0.0,0.0,0.0,0.0,0.0,0.0,0.0,0.0,0.0,0.0,0.0,0.0,0.0,0.0,0.0,0.0,0.0,0.0,0.0,0.0,0.0,0.0,0.0,0.0,0.0,0.0,0.0,0.0,0.0,0.0,0.0,0.0,0.0,0.0,0.0,0.0,0.0,0.0,0.0,0.0,0.0,0.0
0.3101688838438329,0.38963797238319486,0.5011703795235131,0.5863081963679637,0.949463813931865,0.692646123437524,0.644580289436552,0.4254370584595411,0.14126449066714594,-0.2618015309629831,-0.2594894951685355,-0.2577489834707587,-0.08436859128174531,-0.0007146788154933321,0.09472721449421057,0.16201272672547573,0.19809934155058018,0.219932488827882,0.23523102811147106,0.24094954285083953,0.235579036974932,0.24067325918387983,0.2424200576869813,0.24238204367317262,0.23904542296191475,0.22935759282785678,0.2210279317606866,0.21407668828916115,0.20698540916778482,0.20438495730599415,0.20167958087861929,0.2019604893086708,0.19909230381369444,0.1930890223471627,0.18857643730480905,0.18095379582969484,0.17023219208647483,0.15949700874001144,0.15644556719798672,0.14263524859495139,0.13498737443326805,0.13043379678934217,0.12590569280270703,0.13063436052065902,0.12309853577016276,0.12021621707121481,0.11122804802845168,0.11151321395351212,0.09647283151836651,0.08917295550131056,0.08038962899002107,0.0731992222841444,0.06760251046599529,0.06513749925637037,0.0673418563635138,0.061914554096833184,0.06115577420994822,0.04968864946102727,0.04750072942501556,0.037676996003369496,0.024828546478205808,0.021254272919628,0.020801783639886412,0.017318580679866778,0.01080244860991007,0.018164648387981278,0.013263681191187272,0.011473066507414453,0.012790291160209352,0.0002992216272585843,0.0001363662034077855,-0.004614474081220448,-0.01395593589780734,-0.014051847831155857,-0.012591065536466162,-0.018798706377987695,-0.009609162242282742,0.002680238265544286,0.0011602895070219204,0.008899284941915279,0.0028376131907403633,0.010656307319170185,0.010833293897823486,0.017211168811430266,0.028256507432317047,0.03321021926940575,0.04437702206798208,0.05099751800333452,0.05922565034616837,0.06906472084122539,0.0712921552974352,0.07359859718065055,0.06983596378460712,0.07076936739058197,0.06256202494653902,0.06212873224547298,0.06178242611675956,0.06152371591908016,0.06135290209898557,0.0581947842152602,0.05666183823514484,0.05214066934439888,0.041555196054183924,0.04181783242202885,0.028325675595460825,0.022603512670646485,0.016961653058100136,0.019086259496706618,0.015137057032777977,0.014337624800229593,0.021298676343911523,0.02679248380920928,0.023128809482720072,0.021068441303742677,0.025221665029154877,0.018672308189320492,0.012180811628959115,0.010357136292875874,0.011660795683444126,0.0037880750752020452,0.003649537495983739,0.00970456741812728,0.01426214452790969,0.01578158652714444,0.012722139806922304,0.00969335838877496,0.0020791528759747267,-0.007048631422031109,-0.005392579783999336,-0.008331347291382594,-0.005103933942466423,-0.0018621112380709627,0.004468414002268518,0.001586145513650522,0.0033287074771911015,0.006620153162751457,0.005309325927468657,-0.005217367337692684,-0.011122386673276943,-0.009330872912085179,-0.004454893433151385,-0.005718419086363001,-0.002356241257017284,0.002559022208061222,0.00903017057415418,0.006296813869278417,0.0035872732203119074,0.002441855097096299,-0.0017495385052664315,-0.0012962447242027197,0.0007293890668652979,0.0012551386377643236,-0.010479207061591209,-0.0006435629537718512,0.004626882814180577,0.006873742656385804,0.00302581594876934,0.006925430679070652,0.006275756917861805,0.007231089723682142,0.0021073230649459366,-0.0014037188994473154,0.0013145841835997924,0.005653406212919797,0.007003914514424327,0.013058021223741043,0.019206830380177866,0.020841380732936572,0.017965404900847148,0.019808111103396205,0.023297844656298743,0.013062078757967109,0.012168085982425069,0.019081527439808357,0.019967230323075624,0.019441086032668985,0.023656482767472297,0.03415392161715904,0.035560222408461586,0.037103580351998365,0.04954960949186912,0.045223822489437134,0.04872976983419338,0.05391884320464854,0.05925498053424427,0.06473944679679951,0.07191080732582393,0.08692009366137333,0.10515480134731305,0.0,0.0,0.0,0.0,0.0,0.0,0.0,0.0,0.0,0.0,0.0,0.0,0.0,0.0,0.0,0.0,0.0,0.0,0.0,0.0,0.0,0.0,0.0,0.0,0.0,0.0,0.0,0.0,0.0,0.0,0.0,0.0,0.0,0.0,0.0,0.0,0.0,0.0,0.0,0.0,0.0,0.0,0.0,0.0,0.0,0.0,0.0,0.0,0.0,0.0,0.0,0.0,0.0,0.0,0.0,0.0,0.0,0.0,0.0,0.0,0.0,0.0,0.0,0.0,0.0,0.0,0.0,0.0,0.0,0.0,0.0,0.0,0.0,0.0,0.0,0.0,0.0,0.0,0.0,0.0,0.0,0.0,0.0,0.0,0.0,0.0,0.0,0.0,0.0,0.0,0.0,0.0,0.0,0.0,0.0,0.0,0.0,0.0,0.0,0.0,0.0,0.0,0.0,0.0,0.0,0.0,0.0,0.0,0.0,0.0,0.0
0.2927408285926516,0.3707835413612666,0.4809329296423516,0.5754970761545595,0.6359959950091694,0.6808491420623209,0.6177658354994543,0.38981671185594796,0.1076673520086816,-0.259477502631616,-0.15812692784548907,-0.2540794802832875,-0.10758671426457042,-0.016922431163096028,0.06868422443793186,0.14618983337550137,0.1894866835465775,0.2278198107443203,0.2489181941944504,0.25281044710038175,0.24567432461293093,0.24444949427283258,0.23839765582651734,0.23676804302265841,0.24112071444868266,0.23917617514046116,0.23556728751081982,0.23031292818792862,0.22804358586729967,0.228775807776024,0.22176182448110926,0.22085426882401865,0.21991590858737858,0.21588360055165806,0.2103058918215634,0.20473025008379803,0.19916549486101284,0.19669461529379462,0.19578681479147572,0.20106069982868538,0.18791956188870462,0.18865676263127013,0.17867364863835392,0.17181053907294952,0.15884291021090605,0.14899653889049796,0.15149640773544865,0.14481482169491902,0.13202487438952545,0.12849970844252281,0.12347266356470646,0.11386442014129607,0.10582062100175399,0.10241114638425501,0.0897917844433414,0.08794493723887818,0.07687504537237982,0.061187655874168925,0.05932630111068152,0.04514390510686593,0.03862099429396658,0.03974911313398827,0.03314364663803017,0.02494613395593319,0.021297948519304815,0.008351582779368663,0.0014737587548801186,-0.010107986081406943,-0.00948938220285152,-0.0228179055927497,-0.03626261824366013,-0.03906560771629695,-0.03737907960316824,-0.026588351821895232,-0.026676737431030936,-0.02687309090383751,-0.01640373242352102,-0.00755637874855233,-0.0018540118406680669,0.002256297463562907,0.01862842753544388,0.025751522869143055,0.043629743950712306,0.058439996547534505,0.07634772452798706,0.08814211321453036,0.08922475609478239,0.09652315883010228,0.10390043143916781,0.10521920132486255,0.10510475283006643,0.10356905429787262,0.1006235485476101,0.10089195045711645,0.10592227851729966,0.10342367704797495,0.09955592037268557,0.10355345896577632,0.10158629600308934,0.09212468996991903,0.08747676113142028,0.08611179941795753,0.07881067420312259,0.07788017718581748,0.07410035312726578,0.07670201700292573,0.079539646940556,0.08723051399998386,0.08747792856227452,0.087973521105637,0.08410771164189036,0.08203365675740179,0.07714091605782651,0.07865700869187627,0.08043310175774865,0.0809327589723779,0.08476952842556292,0.08425578046656057,0.0916922178466997,0.09785276915409927,0.10427408095794265,0.10787952065978736,0.10866712755997278,0.11124719146501522,0.115616668942013,0.1186967670529203,0.12202090468012679,0.13173469712596675,0.1293816034347571,0.1380195331113503,0.1484162194261204,0.1482635122825892,0.15446685556045534,0.15317901912998846,0.16284152985364142,0.20189514869877134,0.3103061753093932,0.44347208495114243,0.5475632215512174,0.9070189712869369,0.565435498402648,0.31465180558052275,0.031634070742175786,-0.2928709504898961,0.0,0.0,0.0,0.0,0.0,0.0,0.0,0.0,0.0,0.0,0.0,0.0,0.0,0.0,0.0,0.0,0.0,0.0,0.0,0.0,0.0,0.0,0.0,0.0,0.0,0.0,0.0,0.0,0.0,0.0,0.0,0.0,0.0,0.0,0.0,0.0,0.0,0.0,0.0,0.0,0.0,0.0,0.0,0.0,0.0,0.0,0.0,0.0,0.0,0.0,0.0,0.0,0.0,0.0,0.0,0.0,0.0,0.0,0.0,0.0,0.0,0.0,0.0,0.0,0.0,0.0,0.0,0.0,0.0,0.0,0.0,0.0,0.0,0.0,0.0,0.0,0.0,0.0,0.0,0.0,0.0,0.0,0.0,0.0,0.0,0.0,0.0,0.0,0.0,0.0,0.0,0.0,0.0,0.0,0.0,0.0,0.0,0.0,0.0,0.0,0.0,0.0,0.0,0.0,0.0,0.0,0.0,0.0,0.0,0.0,0.0,0.0,0.0,0.0,0.0,0.0,0.0,0.0,0.0,0.0,0.0,0.0,0.0,0.0,0.0,0.0,0.0,0.0,0.0,0.0,0.0,0.0,0.0,0.0,0.0,0.0,0.0,0.0,0.0,0.0,0.0,0.0,0.0,0.0,0.0,0.0,0.0,0.0,0.0,0.0,0.0,0.0,0.0,0.0,0.0,0.0
0.20189514869877134,0.3103061753093932,0.44347208495114243,0.5475632215512174,0.9070189712869369,0.565435498402648,0.31465180558052275,0.031634070742175786,-0.2928709504898961,0.0,0.0,0.0,0.0,0.0,0.0,0.0,0.0,0.0,0.0,0.0,0.0,0.0,0.0,0.0,0.0,0.0,0.0,0.0,0.0,0.0,0.0,0.0,0.0,0.0,0.0,0.0,0.0,0.0,0.0,0.0,0.0,0.0,0.0,0.0,0.0,0.0,0.0,0.0,0.0,0.0,0.0,0.0,0.0,0.0,0.0,0.0,0.0,0.0,0.0,0.0,0.0,0.0,0.0,0.0,0.0,0.0,0.0,0.0,0.0,0.0,0.0,0.0,0.0,0.0,0.0,0.0,0.0,0.0,0.0,0.0,0.0,0.0,0.0,0.0,0.0,0.0,0.0,0.0,0.0,0.0,0.0,0.0,0.0,0.0,0.0,0.0,0.0,0.0,0.0,0.0,0.0,0.0,0.0,0.0,0.0,0.0,0.0,0.0,0.0,0.0,0.0,0.0,0.0,0.0,0.0,0.0,0.0,0.0,0.0,0.0,0.0,0.0,0.0,0.0,0.0,0.0,0.0,0.0,0.0,0.0,0.0,0.0,0.0,0.0,0.0,0.0,0.0,0.0,0.0,0.0,0.0,0.0,0.0,0.0,0.0,0.0,0.0,0.0,0.0,0.0,0.0,0.0,0.0,0.0,0.0,0.0,0.0,0.0,0.0,0.0,0.0,0.0,0.0,0.0,0.0,0.0,0.0,0.0,0.0,0.0,0.0,0.0,0.0,0.0,0.0,0.0,0.0,0.0,0.0,0.0,0.0,0.0,0.0,0.0,0.0,0.0,0.0,0.0,0.0,0.0,0.0,0.0,0.0,0.0,0.0,0.0,0.0,0.0,0.0,0.0,0.0,0.0,0.0,0.0,0.0,0.0,0.0,0.0,0.0,0.0,0.0,0.0,0.0,0.0,0.0,0.0,0.0,0.0,0.0,0.0,0.0,0.0,0.0,0.0,0.0,0.0,0.0,0.0,0.0,0.0,0.0,0.0,0.0,0.0,0.0,0.0,0.0,0.0,0.0,0.0,0.0,0.0,0.0,0.0,0.0,0.0,0.0,0.0,0.0,0.0,0.0,0.0,0.0,0.0,0.0,0.0,0.0,0.0,0.0,0.0,0.0,0.0,0.0,0.0,0.0,0.0,0.0,0.0,0.0,0.0,0.0,0.0,0.0,0.0,0.0,0.0,0.0,0.0,0.0,0.0,0.0,0.0,0.0,0.0,0.0,0.0,0.0,0.0,0.0,0.0,0.0,0.0,0.0,0.0,0.0,0.0,0.0,0.0,0.0,0.0
0.08502905168826289,0.08737378974311343,0.06448875813397655,0.054404612876175894,0.050789388638130345,0.04572648024722604,0.045558338945621085,0.03761477352745208,0.037743985718591284,0.03644410408354959,0.04164111446456118,0.03432656757787773,0.033516633565419056,0.031293058030805024,0.02607489026636108,0.01944975873505922,0.02568010406916695,0.02892528111075933,0.030772562299042957,0.026471604174945415,0.016025012870487906,0.016863308157322583,0.016313941140638492,0.027054163696577555,0.020567582864398685,0.01111560149768796,0.011375151794148745,0.013426328739888214,0.018855377353064685,0.029248475520192736,0.03510113212512161,0.037999284535101485,0.03635995897578517,0.04444366985608637,0.04640776124372509,0.04066866534978725,0.04307062834420442,0.04727654360202443,0.056455296052963455,0.0721911664260513,0.0818088428121222,0.0868919627078934,0.10962053619945675,0.14048678255372335,0.1604761660271132,0.1854295404374372,0.1979152330443406,0.191591218685545,0.20606114934368902,0.20963116723674186,0.22289052226988162,0.22048074947136778,0.21506709704808905,0.20980750389537658,0.2015213623012028,0.1870270155160207,0.18532294863502874,0.18530372307694887,0.1948753874613798,0.18550260407603308,0.16825825628089155,0.17797981719244296,0.19246667718903282,0.21803595747335097,0.23882266746314426,0.25638877239402397,0.27863251466013755,0.3023602799859919,0.35289568165695095,0.4444702464312001,0.5675482193189908,0.9851028876699002,0.7448945847106786,0.7610640077203624,0.6216322658655501,0.3392272382083203,0.08332610962829035,-0.2459381601857348,-0.24143532642562401,-0.23749591896721967,-0.23412592173903018,0.047539979405168575,0.13698336267513342,0.22119821303759207,0.2637819682089203,0.27427762663551125,0.2780705460336005,0.2973759770953538,0.3052923778031874,0.31135717907290467,0.3076782393607673,0.3053742741527622,0.306056253635869,0.30658051767179173,0.3038018758409657,0.31041728300092175,0.32010976118419066,0.312301469975173,0.30285342822273537,0.29178141508871064,0.28543716673966396,0.2806647535272746,0.28222865770723,0.2727108087598929,0.26162597792779935,0.26165630853537813,0.2537952794178013,0.23329437149041324,0.2160005783257498,0.21775972702448923,0.21639173705317763,0.22298716325706114,0.20744191525552355,0.1792599831813411,0.16061926250146055,0.16260617765713414,0.1551127867261244,0.1523926336584192,0.14493296957054735,0.15173890433929965,0.13160884609382142,0.11463699607731233,0.10873574803718448,0.10755761217415423,0.09683271592035594,0.08130306273548289,0.07204764318752227,0.06747009878540045,0.056467503892017545,0.04853337715336839,0.05157658705995998,0.04974024216588782,0.03508903223215407,0.023452915588075055,0.008480525666248767,-0.00033594318562114807,0.00015818970566746485,-0.2942497197579418,-0.015340131168869873,-0.005982793801985471,1.1472958153428372e-05,0.002658624673716201,0.017818295029191102,0.026494012420638938,0.03662346905810737,0.05297548904564516,0.05813756391839867,0.0,0.0,0.0,0.0,0.0,0.0,0.0,0.0,0.0,0.0,0.0,0.0,0.0,0.0,0.0,0.0,0.0,0.0,0.0,0.0,0.0,0.0,0.0,0.0,0.0,0.0,0.0,0.0,0.0,0.0,0.0,0.0,0.0,0.0,0.0,0.0,0.0,0.0,0.0,0.0,0.0,0.0,0.0,0.0,0.0,0.0,0.0,0.0,0.0,0.0,0.0,0.0,0.0,0.0,0.0,0.0,0.0,0.0,0.0,0.0,0.0,0.0,0.0,0.0,0.0,0.0,0.0,0.0,0.0,0.0,0.0,0.0,0.0,0.0,0.0,0.0,0.0,0.0,0.0,0.0,0.0,0.0,0.0,0.0,0.0,0.0,0.0,0.0,0.0,0.0,0.0,0.0,0.0,0.0,0.0,0.0,0.0,0.0,0.0,0.0,0.0,0.0,0.0,0.0,0.0,0.0,0.0,0.0,0.0,0.0,0.0,0.0,0.0,0.0,0.0,0.0,0.0,0.0,0.0,0.0,0.0,0.0,0.0,0.0,0.0,0.0,0.0,0.0,0.0,0.0,0.0,0.0,0.0,0.0,0.0,0.0,0.0,0.0,0.0,0.0,0.0,0.0,0.0,0.0,0.0,0.0,0.0,0.0,0.0,0.0,0.0,0.0,0.0
0.17797981719244296,0.19246667718903282,0.21803595747335097,0.23882266746314426,0.25638877239402397,0.27863251466013755,0.3023602799859919,0.35289568165695095,0.4444702464312001,0.5675482193189908,0.9851028876699002,0.7448945847106786,0.7610640077203624,0.6216322658655501,0.3392272382083203,0.08332610962829035,-0.2459381601857348,-0.24143532642562401,-0.23749591896721967,-0.23412592173903018,0.047539979405168575,0.13698336267513342,0.22119821303759207,0.2637819682089203,0.27427762663551125,0.2780705460336005,0.2973759770953538,0.3052923778031874,0.31135717907290467,0.3076782393607673,0.3053742741527622,0.306056253635869,0.30658051767179173,0.3038018758409657,0.31041728300092175,0.32010976118419066,0.312301469975173,0.30285342822273537,0.29178141508871064,0.28543716673966396,0.2806647535272746,0.28222865770723,0.2727108087598929,0.26162597792779935,0.26165630853537813,0.2537952794178013,0.23329437149041324,0.2160005783257498,0.21775972702448923,0.21639173705317763,0.22298716325706114,0.20744191525552355,0.1792599831813411,0.16061926250146055,0.16260617765713414,0.1551127867261244,0.1523926336584192,0.14493296957054735,0.15173890433929965,0.13160884609382142,0.11463699607731233,0.10873574803718448,0.10755761217415423,0.09683271592035594,0.08130306273548289,0.07204764318752227,0.06747009878540045,0.056467503892017545,0.04853337715336839,0.05157658705995998,0.04974024216588782,0.03508903223215407,0.023452915588075055,0.008480525666248767,-0.00033594318562114807,0.00015818970566746485,-0.2942497197579418,-0.015340131168869873,-0.005982793801985471,1.1472958153428372e-05,0.002658624673716201,0.017818295029191102,0.026494012420638938,0.03662346905810737,0.05297548904564516,0.05813756391839867,0.07272174796530945,0.07614624152032193,0.08902244457581786,0.09710528439766758,0.10357728913717014,0.11795797269107583,0.1323382850720374,0.13563985086690739,0.12470547206095453,0.12014278970971842,0.11404020061794785,0.11749791469206321,0.11468131873201964,0.1166894649536609,0.12511462525842706,0.1209517064668445,0.11529797836771215,0.11766573817332811,0.12330739624438321,0.11955293552303554,0.11432850404805064,0.09654723827789602,0.09314653065975953,0.08670099200152362,0.0851346524659111,0.08211179834896958,0.07604939372738932,0.07803893466261579,0.07857475533553708,0.07765700664017808,0.07686981441475527,0.06829070930464173,0.0661779870576954,0.05151787779089208,0.04648984399844965,0.04000136640786126,0.038387739295052,0.03689348220333631,0.04026912964514229,0.039005721303771584,0.03785340587859295,0.03997776922240016,0.0295317941053372,0.02393998758603733,0.021614295248542966,0.02096654297695852,0.017239712947975414,0.007261050323538457,0.010038863518584693,0.011309700465463882,0.012653737081891658,0.010897989283176226,0.01079124880578206,0.007576045988417013,-0.0019207749684868787,0.001308741706829677,-0.0017520933714927033,0.004736115862282001,0.00017247210948784678,0.0035652498400885104,0.003819734120288253,0.0,0.0,0.0,0.0,0.0,0.0,0.0,0.0,0.0,0.0,0.0,0.0,0.0,0.0,0.0,0.0,0.0,0.0,0.0,0.0,0.0,0.0,0.0,0.0,0.0,0.0,0.0,0.0,0.0,0.0,0.0,0.0,0.0,0.0,0.0,0.0,0.0,0.0,0.0,0.0,0.0,0.0,0.0,0.0,0.0,0.0,0.0,0.0,0.0,0.0,0.0,0.0,0.0,0.0,0.0,0.0,0.0,0.0,0.0,0.0,0.0,0.0,0.0,0.0,0.0,0.0,0.0,0.0,0.0,0.0,0.0,0.0,0.0,0.0,0.0,0.0,0.0,0.0,0.0,0.0,0.0,0.0,0.0,0.0,0.0,0.0,0.0,0.0,0.0,0.0,0.0,0.0,0.0,0.0,0.0,0.0,0.0,0.0,0.0,0.0,0.0,0.0,0.0,0.0,0.0,0.0,0.0,0.0,0.0,0.0,0.0,0.0,0.0,0.0,0.0,0.0,0.0,0.0,0.0,0.0,0.0,0.0,0.0,0.0,0.0,0.0,0.0,0.0,0.0,0.0,0.0,0.0,0.0,0.0,0.0,0.0,0.0,0.0,0.0,0.0,0.0,0.0,0.0,0.0,0.0,0.0,0.0,0.0,0.0,0.0,0.0,0.0,0.0
0.5889102816194994,0.3852277062977599,0.10519329609465082,-0.08962825706815199,-0.1549160057651124,-0.16992117768780432,-0.08079338679791183,-0.16321461068265689,-0.1605115647201476,0.16816086291983934,0.21919498568904183,0.2492940013917008,0.2711673678900013,0.28009525057846973,0.2824470337405714,0.28775943681945504,0.2865553532074805,0.29153738695138043,0.28688808859769094,0.2837228039114753,0.28364923730954344,0.28352057114078055,0.280188569507885,0.28159415363647755,0.28458626908355267,0.27967498216346354,0.2827188213467111,0.2842250316413917,0.27945254791540003,0.28742440118099755,0.2796311906486554,0.2687556416740159,0.2627259780028628,0.2694690796027711,0.26680752427002696,0.2626655309969172,0.2554597778302969,0.2610336754870179,0.263542001025676,0.262981904516173,0.2641023217723107,0.2605602989725892,0.2602708721456153,0.24896662506694342,0.24406619651713482,0.2455589344459727,0.2518485986542892,0.2407409395146551,0.24232458614960314,0.24232466507385453,0.23438693026904142,0.24225891263486918,0.23423409750749935,0.21979832219570788,0.2052675172018462,0.21121582439836972,0.19801038223735015,0.20048256053624944,0.19642549761375744,0.20007178918903318,0.19396569249438056,0.19392218858049307,-0.12013068873969042,0.18655343656676457,0.17284085647368863,-0.12326375830782607,0.1569459284366387,-0.12728422329752515,0.1489368414501815,-0.13295256060172128,-0.13640497004596894,-0.14025524083176286,0.17873450239182584,0.19319476844259095,0.19468850688746114,0.19434459753912364,0.20170657894976252,0.21681081104076394,0.23018643829280908,0.24503646367627027,0.25980963577542354,0.2761222136281632,0.27816111122655207,0.28655232176485745,0.29023309127242297,0.29398291119666686,0.2883205114578357,0.2701006233334932,0.26944826067598127,0.26895605229547453,0.2654745901225593,0.2606062247614652,0.2607050828973766,0.26103341345857545,0.2600208974838659,0.2576802786629532,0.24926989712714995,0.24905921842199608,0.24438220883808348,0.23366216409569043,0.2279961005477979,0.22738929151078774,0.2223396634127286,0.22235641955085197,0.2258570767982936,0.22650493679218617,0.22429964315615192,0.2208240748070973,0.21607562134574437,0.2132193038883779,0.2106659597192706,0.2084097278441443,0.2191186364826686,0.2158504763566653,0.21127113804398234,0.21962980068805438,0.22190286289929004,0.22441551022658815,0.21606377270688096,0.21742991465891662,0.22849833844899073,0.22548684202430064,0.2353118510153385,0.22943578998949393,0.23794151621973014,0.24179533744304138,0.255234095866176,0.2528842292699862,0.26007066943983226,0.26726099174462425,0.2728433102897669,0.27678877069367447,0.28223588999414606,0.27172501965153867,0.2975072839373671,0.37222325304883846,0.48949959583111985,0.6001831889279677,0.6662090362109372,0.627327991184082,0.42011884067033767,-0.19629196075977204,-0.19528580475524185,-0.16944934519245458,-0.1948467751386571,-0.12254595982179599,-0.06343257617298997,0.0,0.0,0.0,0.0,0.0,0.0,0.0,0.0,0.0,0.0,0.0,0.0,0.0,0.0,0.0,0.0,0.0,0.0,0.0,0.0,0.0,0.0,0.0,0.0,0.0,0.0,0.0,0.0,0.0,0.0,0.0,0.0,0.0,0.0,0.0,0.0,0.0,0.0,0.0,0.0,0.0,0.0,0.0,0.0,0.0,0.0,0.0,0.0,0.0,0.0,0.0,0.0,0.0,0.0,0.0,0.0,0.0,0.0,0.0,0.0,0.0,0.0,0.0,0.0,0.0,0.0,0.0,0.0,0.0,0.0,0.0,0.0,0.0,0.0,0.0,0.0,0.0,0.0,0.0,0.0,0.0,0.0,0.0,0.0,0.0,0.0,0.0,0.0,0.0,0.0,0.0,0.0,0.0,0.0,0.0,0.0,0.0,0.0,0.0,0.0,0.0,0.0,0.0,0.0,0.0,0.0,0.0,0.0,0.0,0.0,0.0,0.0,0.0,0.0,0.0,0.0,0.0,0.0,0.0,0.0,0.0,0.0,0.0,0.0,0.0,0.0,0.0,0.0,0.0,0.0,0.0,0.0,0.0,0.0,0.0,0.0,0.0,0.0,0.0,0.0,0.0,0.0,0.0,0.0,0.0,0.0,0.0,0.0,0.0,0.0,0.0,0.0,0.0
0.627327991184082,0.42011884067033767,-0.19629196075977204,-0.19528580475524185,-0.16944934519245458,-0.1948467751386571,-0.12254595982179599,-0.06343257617298997,0.03322485817559754,0.14052982860609026,0.24267622910209946,0.3016761015465359,0.32548694116224736,0.3315709416993837,0.3294668303835471,0.314452366223916,0.3024004425291052,0.3012605412560566,0.29996821854387906,0.2985480989547536,0.3017764106636731,0.3049216821973256,0.30483530101831446,0.29836712998083187,0.27919677212662813,0.27110532720320213,0.2550945678890467,0.24385226769538565,0.23263687866295144,0.2214587370250431,0.2166644871024395,0.21667782683239273,0.21041516392190904,0.2026355008685441,0.1965124202760656,0.1936341237527686,0.18608162343703633,0.1738568023864748,0.16012934888650973,0.15123681757449123,0.14084101989727785,0.13686232147935565,0.12820796992449077,0.12438131015843062,0.11904136788738928,0.1090152825469666,0.09746706963779636,0.09072893522003618,0.07928891983881198,0.06947828857425702,0.05178423188222165,0.04362784573257546,0.033911346450598165,0.030549146037960866,0.028780544395855548,0.01592284958990206,0.009396214324397094,-0.0018979090340411745,-0.016383172556119402,-0.018223737649470616,-0.02326956567970218,-0.02994084075969267,-0.022396226031865793,-0.02440073570798189,-0.021692428727087695,-0.011097620684116013,-0.0005311411190491201,0.006846338156001031,0.01579603487717059,0.023157293459063102,0.030522482790012906,0.041068223789855134,0.053217881312105975,0.06381024705119417,0.06651511097620516,0.08193619691045112,0.08156149374467014,0.09074708649954003,0.08573325003125071,0.08712210436367349,0.09333419140287251,0.08853030708267483,0.07746756229953902,0.06965572875229334,0.06034488044023922,0.049537846537939495,0.04357462576742802,0.039288762253695965,0.033513582248605546,0.03575715810395455,0.0317618773341041,0.027866730301213415,0.02882618074008669,0.02038213923625617,0.015210625149812577,0.00855950993249832,0.003598428072771791,-0.001256132192363306,0.0003341384717980596,0.0020327261887723557,-0.0024968845886163458,0.008927401152255418,-0.0017180614547504208,-0.002744777922170141,-0.00841075726778411,-0.012376966121881348,-0.01147230772874718,0.002228593933019829,0.022392894392340136,0.026844059855480933,0.033014640013446304,0.04090900433928909,0.0394407825070835,0.036535813461502344,0.036951003307369154,0.03593686856263002,0.03349684444411959,0.026465450848392826,0.0306894540034028,0.028743763632512787,0.03647486018915156,0.044379195320436,0.050874877389023694,0.060717264133469125,0.0628177807382562,0.06509996261716833,0.07548703109508538,0.08130510036348533,0.088892320994311,0.10933954048790842,0.13314038024942992,0.1587097540761672,0.18446191006351076,0.19296662457839694,0.19372700458367398,0.1930764565731303,0.18308810804381626,0.17959963838002466,0.17468229425598264,0.15723768871178873,0.14785391773543727,0.13384656694914346,0.11995852870318585,0.12202260084078648,0.12259925723518846,0.11850767200834586,0.12399445228357847,0.0,0.0,0.0,0.0,0.0,0.0,0.0,0.0,0.0,0.0,0.0,0.0,0.0,0.0,0.0,0.0,0.0,0.0,0.0,0.0,0.0,0.0,0.0,0.0,0.0,0.0,0.0,0.0,0.0,0.0,0.0,0.0,0.0,0.0,0.0,0.0,0.0,0.0,0.0,0.0,0.0,0.0,0.0,0.0,0.0,0.0,0.0,0.0,0.0,0.0,0.0,0.0,0.0,0.0,0.0,0.0,0.0,0.0,0.0,0.0,0.0,0.0,0.0,0.0,0.0,0.0,0.0,0.0,0.0,0.0,0.0,0.0,0.0,0.0,0.0,0.0,0.0,0.0,0.0,0.0,0.0,0.0,0.0,0.0,0.0,0.0,0.0,0.0,0.0,0.0,0.0,0.0,0.0,0.0,0.0,0.0,0.0,0.0,0.0,0.0,0.0,0.0,0.0,0.0,0.0,0.0,0.0,0.0,0.0,0.0,0.0,0.0,0.0,0.0,0.0,0.0,0.0,0.0,0.0,0.0,0.0,0.0,0.0,0.0,0.0,0.0,0.0,0.0,0.0,0.0,0.0,0.0,0.0,0.0,0.0,0.0,0.0,0.0,0.0,0.0,0.0,0.0,0.0,0.0,0.0,0.0,0.0,0.0,0.0,0.0,0.0,0.0,0.0
0.9204045927228014,0.5175364434769543,0.2443016617739309,-0.018166951455781937,-0.17643252918224667,-0.21785923723152373,-0.1836629861503254,-0.10553278295001665,-0.011971451022341493,0.07803441876314662,0.13440879809896286,0.1635157283188008,0.1796404178022053,0.195482889532111,0.20156111883780664,0.20582014963178494,0.20986654674907101,0.21530584592394159,0.21423632665012945,0.20826139879994776,0.21007397578985504,0.20543167682385333,0.1975191167337177,0.19427298664674447,0.18936967973293087,0.1954970316129612,0.1936545746997537,0.1949438524624673,0.196206129735672,0.19111296099873848,0.1828411266081989,0.17773518699171717,0.18213878837132375,0.1722916997517156,0.16562634271082477,0.16531496700636916,0.15710094826670143,0.15049235281486406,0.158165197105095,0.1484324462267539,0.14664351589007574,0.1432909876477603,0.13520418110680152,0.12079606723722308,0.11115388353188992,0.10310495314161557,0.08713857217592233,0.08543087757893386,0.08371711078864043,0.07406955736051804,0.07549433716995058,0.07372547556719958,0.06083409170271409,0.04948771773315383,0.03017243219316305,0.023477054720195973,0.019887265548146942,0.013057363161573458,0.004563385698546916,-0.0008499583537404564,-0.0016067189609616443,-0.004052704432587842,-0.009780466985883734,-0.007707231287446075,-0.024774120490748307,-0.03246865193339913,-0.0323789779529593,-0.03401200545489763,-0.0326122549800622,-0.026589751564719356,-0.01118268644497581,-0.002223506464127946,0.0050531855233285645,0.021750469167885686,0.03679024940255083,0.05018489713376397,0.05719349586281282,0.06891855634618305,0.07269678610335559,0.08913627223836489,0.0928980716502326,0.09983635882379648,0.11154553339182069,0.11536018544356003,0.12079549679215928,0.11360055518031066,0.11279556855055778,0.11205029175517472,0.10661828348656102,0.10125874909346766,0.10073036083322806,0.09553197430771496,0.09200561964668041,0.09807721713797332,0.0868161350460404,0.08674412487813514,0.08202020515772182,0.0805684779571656,0.07288458925015388,0.06689182816563617,0.06100691250180554,0.05839932905161926,0.059069523937535375,0.05351144437755645,0.049646788239717285,0.05222825019889404,0.0501645985163381,0.048208018491733375,0.04160423769396101,0.02876747828774638,0.03187727168615173,0.030335074379702207,0.02572333292412147,0.02120871001772963,0.016789004106245467,0.02513685013558454,0.02248433929336964,0.029425735986086818,0.020608525477443296,0.013457976987612018,0.014308681968359986,0.012067118583917291,0.0019771647269775936,-0.00012058041176975747,0.004186426474889078,0.0006357976055602188,0.006652480626084514,0.007974063643947654,0.007766147501884124,0.0028568219004366504,0.009086551525030743,0.001102223509805058,0.0010817140951913447,-0.0020688301668316685,-0.003599589953172156,-0.0019292850378091189,0.0029393389483555947,0.0030818805666570363,0.006417601861419059,0.006606439105847545,0.008398871210917563,0.007039137147598549,0.0009401695284406458,-0.009900766411723499,-0.009642731959225216,-0.009378100733048823,-0.0011859164770221778,0.0,0.0,0.0,0.0,0.0,0.0,0.0,0.0,0.0,0.0,0.0,0.0,0.0,0.0,0.0,0.0,0.0,0.0,0.0,0.0,0.0,0.0,0.0,0.0,0.0,0.0,0.0,0.0,0.0,0.0,0.0,0.0,0.0,0.0,0.0,0.0,0.0,0.0,0.0,0.0,0.0,0.0,0.0,0.0,0.0,0.0,0.0,0.0,0.0,0.0,0.0,0.0,0.0,0.0,0.0,0.0,0.0,0.0,0.0,0.0,0.0,0.0,0.0,0.0,0.0,0.0,0.0,0.0,0.0,0.0,0.0,0.0,0.0,0.0,0.0,0.0,0.0,0.0,0.0,0.0,0.0,0.0,0.0,0.0,0.0,0.0,0.0,0.0,0.0,0.0,0.0,0.0,0.0,0.0,0.0,0.0,0.0,0.0,0.0,0.0,0.0,0.0,0.0,0.0,0.0,0.0,0.0,0.0,0.0,0.0,0.0,0.0,0.0,0.0,0.0,0.0,0.0,0.0,0.0,0.0,0.0,0.0,0.0,0.0,0.0,0.0,0.0,0.0,0.0,0.0,0.0,0.0,0.0,0.0,0.0,0.0,0.0,0.0,0.0,0.0,0.0,0.0,0.0,0.0,0.0,0.0,0.0,0.0,0.0,0.0,0.0,0.0,0.0
0.49795182248922554,0.21328201713101258,-0.03373401621236634,-0.3160184520342462,-0.18364888016686437,-0.14363103074240166,-0.06603732442614421,0.03014288817551722,0.1021610127324872,0.16272117782912174,0.1896709092494094,0.2083879537105,0.2157304888515667,0.2291524320056027,0.22966616203988455,0.226801532782959,0.23167161755053112,0.22686973492721146,0.21241609113717466,0.21684837877935137,0.21008161910738693,0.20639204803614697,0.20421117289271776,0.200385101225977,0.19968075861877968,0.20052659745660134,0.20293443953909276,0.19740889712510717,0.19346598161692022,0.18160830355670163,0.1761030234262382,0.16903524421424185,0.16199539530211735,0.16607926780285862,0.16227885431108405,0.1585195699305351,0.16747912182458657,0.1622252291095546,0.1601870724092599,0.1502744004979473,0.14357731066605658,0.13058836719843617,0.12239619812696968,0.11424510036202122,0.10454749446890084,0.09646833324132183,0.09475641455349337,0.08990074357624321,0.08981789769597813,0.07707411970789327,0.07542876658487249,0.07220035011592874,0.05946010840014713,0.0530444358043875,0.041855176489505666,0.03539069102776697,0.02888982035383903,0.027097435356744512,0.025252055568593966,0.020176432852289598,0.016615031900297332,0.011390377433077246,-0.0018438245400070727,-0.0024996720560170726,-0.009598283437891805,-0.018395022270199606,-0.027313075936518955,-0.030020780839407565,-0.02335261427514576,-0.019983879745517692,-0.024665823164109476,-0.018382274706406007,-0.018555181107963798,-0.0077486507929383636,-0.006549857074520349,-0.002273512966739622,0.011428819480922454,0.02506211602303282,0.03388439872396601,0.04265977124532668,0.06407400691656744,0.07437220595501268,0.08307087238528763,0.08701119582724096,0.0893714218182326,0.09174499302167524,0.09572490524387225,0.10131932774819358,0.09744537644770436,0.09836954574632477,0.10092979682344067,0.09879486337477252,0.10306102044470855,0.09313669274395298,0.089623352945285,0.09252522640443146,0.09550861908848106,0.08114879961261191,0.07162975449811561,0.07170701852463367,0.07029209014335155,0.06421794836020389,0.06932963453629476,0.06978451258361934,0.06875201358162038,0.0567262771434308,0.0543040876635145,0.044057118273709,0.04024412694478061,0.036526869728315654,0.03607310836307586,0.034128582863632434,0.035445059786824856,0.033683560320799756,0.0288423997002782,0.038347770739831546,0.035263423138918636,0.027509006853448502,0.024588363340182752,0.010655311423355034,0.011057110252559618,0.009947402433656386,0.012076556920542662,0.003182479114483361,0.013365312937072799,0.0077661058608071085,0.0038099765245734577,0.0014939587390777984,0.003983802901080174,-0.007735897514010075,-0.0019807987748108264,-0.0009343280506001877,-0.006182942701183951,-0.006638068781456248,-0.0007167518745648015,0.0004896505091301844,0.0064866305842852245,0.012520367755589118,0.007499537722704257,0.0072670064889163765,0.00865318874420227,0.008488462843506378,0.009940635147702817,-0.006003679876205533,-0.004489411653467381,-0.010866896342540757,-0.0013706412507575594,0.0,0.0,0.0,0.0,0.0,0.0,0.0,0.0,0.0,0.0,0.0,0.0,0.0,0.0,0.0,0.0,0.0,0.0,0.0,0.0,0.0,0.0,0.0,0.0,0.0,0.0,0.0,0.0,0.0,0.0,0.0,0.0,0.0,0.0,0.0,0.0,0.0,0.0,0.0,0.0,0.0,0.0,0.0,0.0,0.0,0.0,0.0,0.0,0.0,0.0,0.0,0.0,0.0,0.0,0.0,0.0,0.0,0.0,0.0,0.0,0.0,0.0,0.0,0.0,0.0,0.0,0.0,0.0,0.0,0.0,0.0,0.0,0.0,0.0,0.0,0.0,0.0,0.0,0.0,0.0,0.0,0.0,0.0,0.0,0.0,0.0,0.0,0.0,0.0,0.0,0.0,0.0,0.0,0.0,0.0,0.0,0.0,0.0,0.0,0.0,0.0,0.0,0.0,0.0,0.0,0.0,0.0,0.0,0.0,0.0,0.0,0.0,0.0,0.0,0.0,0.0,0.0,0.0,0.0,0.0,0.0,0.0,0.0,0.0,0.0,0.0,0.0,0.0,0.0,0.0,0.0,0.0,0.0,0.0,0.0,0.0,0.0,0.0,0.0,0.0,0.0,0.0,0.0,0.0,0.0,0.0,0.0,0.0,0.0,0.0,0.0,0.0,0.0
0.9709533481170605,0.597838292429625,0.33221490964081574,0.058382161878328696,-0.10487621274537212,-0.16869492910203718,-0.25827322171692774,-0.2532172873119452,-0.026771315381054334,0.07728731828747336,0.16831297711927734,0.22257274139406366,0.23851399927820985,0.24627038243375332,0.25696191613711494,0.26111061267921437,0.27300271681091604,0.27682017918862206,0.27892473490670733,0.2840923671406823,0.28600708971660427,0.289442070724473,0.2960003125829034,0.2866865888665676,0.2884508598696574,0.2918011926401482,0.2904129476076524,0.2795443940137876,0.2782178663049582,0.28961062302591534,0.2899642787266163,0.30146566662498514,0.29876913557850177,0.2961367225655216,0.2967383959929437,0.2958208044942123,0.28229164173891796,0.2799132142879328,0.2823434287025212,0.29116063106771756,0.2984355488436024,0.296237453687101,0.2940621710750461,0.28397599929935,0.2818092836105946,0.28120979992780853,0.27265517948766554,0.26246532565752334,0.2617118819827471,0.2545309267766115,0.25040711488047485,0.24298015030137804,0.23856342755453402,0.229209815892689,0.21964593429519802,0.20984415223843175,0.21403505133080442,0.20842333632872828,0.1977312625367895,0.18034257187101863,0.17840553486065888,0.17445832487288493,-0.14048545525898085,-0.14222043020987812,-0.1444736267737643,0.14426994566018614,-0.15055571132736842,0.1308109607658722,-0.15869371972714286,0.12169304061803843,0.1196143961250498,0.11395151468172832,0.11741117268524637,0.12368716295958251,0.13122579472675658,0.14797896568078406,0.15813240011718108,0.17122096752412905,0.1730132294582834,0.17779551209489206,0.18400959836337197,0.18692764657964298,0.18815836628350674,0.19564700364840526,0.19990981805829722,0.1962151941160279,0.20518040196284615,0.21256563866872627,0.2152206501274113,0.21157848722241887,0.20957733164182615,0.19814189336565385,0.1899613517567895,0.18821768856084387,0.1786638897190169,0.1739862529895275,0.17577960808536758,0.1745473400624856,0.17188252980456803,0.1709617532765692,0.15753268103314255,0.139523278271732,0.1375356650701231,0.13097770062253283,0.12302207371437802,0.12000955387850917,0.10768351390381944,0.09872097943689477,0.0931234951630046,0.09089211216252117,0.08568994462646755,0.08860769828295771,0.0838013975049206,0.07760777307835058,0.06368819423850756,0.05154732036146964,0.05227386020031205,0.045268908412141005,0.04637375809803395,0.046079590927032496,0.042799195789229624,0.033360763358795203,0.03360468412954037,0.03243692888599746,0.025100771661151468,0.014761163393184736,0.006167297334389594,0.008821396385146459,0.005291399703887047,0.008248190883459842,0.008181477608157827,0.016177707954908232,0.016389036187788197,0.011979949497955408,0.0029461174954497917,0.0003737246163423,-0.011585312339345701,-0.006001147355070401,-0.005058236166634608,-0.005590579313348683,-0.006016064620055515,-0.0031676809885948817,-0.001799684884509357,-0.00032856057177415383,0.0012450108377311444,-0.0018327240085237112,-0.006393685598281462,0.0,0.0,0.0,0.0,0.0,0.0,0.0,0.0,0.0,0.0,0.0,0.0,0.0,0.0,0.0,0.0,0.0,0.0,0.0,0.0,0.0,0.0,0.0,0.0,0.0,0.0,0.0,0.0,0.0,0.0,0.0,0.0,0.0,0.0,0.0,0.0,0.0,0.0,0.0,0.0,0.0,0.0,0.0,0.0,0.0,0.0,0.0,0.0,0.0,0.0,0.0,0.0,0.0,0.0,0.0,0.0,0.0,0.0,0.0,0.0,0.0,0.0,0.0,0.0,0.0,0.0,0.0,0.0,0.0,0.0,0.0,0.0,0.0,0.0,0.0,0.0,0.0,0.0,0.0,0.0,0.0,0.0,0.0,0.0,0.0,0.0,0.0,0.0,0.0,0.0,0.0,0.0,0.0,0.0,0.0,0.0,0.0,0.0,0.0,0.0,0.0,0.0,0.0,0.0,0.0,0.0,0.0,0.0,0.0,0.0,0.0,0.0,0.0,0.0,0.0,0.0,0.0,0.0,0.0,0.0,0.0,0.0,0.0,0.0,0.0,0.0,0.0,0.0,0.0,0.0,0.0,0.0,0.0,0.0,0.0,0.0,0.0,0.0,0.0,0.0,0.0,0.0,0.0,0.0,0.0,0.0,0.0,0.0,0.0,0.0,0.0,0.0,0.0
