0.7358473610259796,0.812370098174562,0.8375950376960707,0.8196040843157741,0.7744982792070428,0.7214600557249712,0.6771254949076806,0.6524548732050668,0.650098074097123,0.6652006043360074,0.6880729745156922,0.7076536184997284,0.7158416462382107,0.7092806388156475,0.6900688968077473,0.6645393680128553,0.6405692037447985,0.6254354687110456,0.6229551811599611,0.6324479320131657,0.6490459319399196,0.6651073993495639,0.6735420248504946,0.6698513056830295,0.6541785177514857,0.6318518636594055,0.6120151729895924,0.6060129957396118,0.6233930875130509,0.6688002930734477,0.7397386229783224,0.8258425361874293,0.9115061808356023,0.9787045788677253,1.0115955381998207,1.0006505165814363,0.945017753865322,0.8537544167958283,0.743070213841575,0.6324473690683541,0.5397922796281822,0.4768784739288315,0.44773865326558704,0.4479121644798061,0.4667696796021338,0.49113069056865377,0.5088890866932755,0.5128586316055647,0.5014497122808361,0.4781984043842828,0.4496400717929432,0.42191742703418156,0.40067389591814156,0.38726389951517093,0.37972786455784896,0.3740923432089709,0.36555878185246016,0.3523131415822691,0.33397519040377066,0.31239401914888826,0.29085384023310273,0.27225792745003896,0.2600536045053918,0.25519435260281287,0.25687290845790556,0.2630617966265882,0.2709914377940362,0.2792453336594172,0.28654749140505087,0.29256145977844944,0.2977626093545596,0.30273211246494475,0.3089774623785669,0.3168612269741401,0.3260437984513189,0.33557609624526635,0.34383171452896255,0.3500985366139004,0.3532977068048338,0.3529097471462742,0.3492077555972826,0.3428844119232158,0.33626724543763803,0.3309623758820415,0.3280901774639605,0.32796772378578265,0.3294881807456192,0.3322741824626342,0.3345377542801196,0.3346881526585944,0.33199963099689767,0.3266687288792742,0.3207270202454795,0.3160413759663372,0.3140299756962411,0.31500885880265694,0.3176757178514031,0.3203647015991074,0.32056367426426946,0.31644025849277374,0.3077818346575149,0.29613842434579424,0.2852929820961665,0.2789561522011541,0.27971045271947986,0.2877243262079888,0.2999407171701243,0.3111792722048695,0.31451230424588045,0.3036164584276615,0.27482439315188983,0.22837994210005216,0.1692783368814402,0.10550833657837093,0.046346481160171045,0.0,0.0,0.0,0.0,0.0,0.0,0.0,0.0,0.0,0.0,0.0,0.0,0.0,0.0,0.0,0.0,0.0,0.0,0.0,0.0,0.0,0.0,0.0,0.0,0.0,0.0,0.0,0.0,0.0,0.0,0.0,0.0,0.0,0.0,0.0
1.0006505165814363,1.028502584693197,0.9662061999174962,0.8387575447933763,0.6835943584041915,0.5397922796281822,0.43728181805247585,0.39066548880250296,0.3967652161787544,0.43830577858049047,0.49113069056865377,0.5322155610946377,0.5471601333277677,0.532681572164305,0.49579817519186414,0.44964007179294324,0.40762365828410707,0.3794166615818412,0.36772377162300385,0.36862896257624894,0.3740923432089709,0.37528890729151765,0.36662659324442126,0.34697243393777183,0.31967781878935864,0.29085384023310273,0.26665227768102884,0.25176259653894456,0.24763074461390383,0.2526180443910427,0.2630617966265882,0.27459904890544673,0.2842750361509607,0.29081828551506184,0.2947589441185097,0.2977626093545596,0.3014551094549257,0.3072717614032156,0.3155005373763235,0.3254072921491486,0.33557609624526635,0.34422959175143425,0.35022031502920625,0.35291913501271516,0.3523775538362548,0.3492077555972826,0.34418696648637237,0.3385723124686888,0.33347831000282613,0.32978430668645176,0.32796772378578265,0.3272908099226693,0.3283621937798467,0.33023841737057985,0.3317707632983295,0.33199963099689767,0.3299815233471706,0.3265513123431104,0.3223704260462622,0.3182822172869698,0.31500885880265694,0.3124646554730049,0.3111210883282034,0.31041137803392327,0.3095329224805985,0.3077818346575149,0.30458901617529843,0.30051232582490184,0.29599036370278414,0.291574729724674,0.2877243262079888,0.284446520971115,0.2819759978930338,0.27988127834488014,0.27762410660831266,0.27482439315188983,0.2713009335682757,0.26768475304216266,0.2645392994029259,0.2624078033569839,0.26157521230459224,0.26174925540042115,0.2625221608914574,0.2627942543246294,0.26129146588430596,0.2569370905658824,0.24905026126119315,0.23816567001771424,0.22530792258199334,0.21212797668169528,0.2005956536175509,0.192393427342132,0.18911870583814927,0.1910519631562086,0.1973422146746132,0.2061766404398024,0.21503033181766298,0.22195651892863716,0.22531016853077535,0.22457899576737836,0.22059850596152622,0.21517926866760997,0.21114506236098024,0.21062132421121393,0.2145039981561479,0.22192412988217775,0.23003124050205714,0.2351694934116037,0.2330138695568159,0.22012130829156956,0.1950599391925343,0.15888747211324294,0.11569978907459658,0.07101776641139339,0.0307939085581476,0.0,0.0,0.0,0.0,0.0,0.0,0.0,0.0,0.0,0.0,0.0,0.0,0.0,0.0,0.0,0.0,0.0,0.0,0.0,0.0,0.0,0.0,0.0,0.0,0.0,0.0,0.0,0.0,0.0,0.0,0.0,0.0,0.0,0.0,0.0
0.3492077555972826,0.38057012553497493,0.38730102774222674,0.3747139025923485,0.3517081719602597,0.32796772378578265,0.3110012851698613,0.3048429801378487,0.3091075942153239,0.31997319356276627,0.33199963099689767,0.340004200469227,0.34126418604643094,0.3357447095982421,0.3258072625303016,0.31500885880265694,0.3064612099536456,0.30217316219095325,0.3021670270727414,0.30483869861104473,0.3077818346575149,0.30863510455002147,0.306364253108744,0.3011896837335123,0.29440771654190795,0.2877243262079888,0.2823605715221939,0.2789788374816123,0.2772459762423555,0.27621007414556736,0.27482439315188983,0.2723184123022731,0.2688907322078111,0.26531680466057533,0.2626292653509362,0.26157521230459224,0.2620187121283319,0.2632383259313477,0.2637923529688683,0.26208439836958447,0.2569370905658824,0.24792196543845163,0.2359133159423,0.22262335055025717,0.21019620937088454,0.2005956536175509,0.19495941497679364,0.1936355407176296,0.19596571810447844,0.20064683936309655,0.2061766404398024,0.21091886676808538,0.21464582056456158,0.21726404569690552,0.2190953146813907,0.22059850596152622,0.2215714746126132,0.22258304025216394,0.2233414944489883,0.2233083265662965,0.22192412988217775,0.21868293178131795,0.2138952611309282,0.20790792941407313,0.20135872077010625,0.1950599391925343,0.1896546191028181,0.18603194336923812,0.18433382729711564,0.1841768077660928,0.1847215510581444,0.184709525783575,0.18336565918225095,0.17993921182878278,0.17430346147512465,0.1671311672566404,0.1596689851595715,0.15395067912025004,0.15150012766556464,0.15304326664385184,0.15815391290365363,0.16510749460107393,0.1718282437002699,0.1759053204011178,0.17569063466399043,0.17094377969564245,0.1628512035178338,0.15409100274982432,0.1472214489027221,0.14386522761100948,0.14395999969072457,0.14553610556308277,0.14593584484007666,0.142492479317143,0.13430087568297952,0.12331489613475392,0.11434243130807219,0.11430173774297024,0.1295370079847911,0.16346928464467436,0.2145628742671322,0.2754863902548165,0.33453986338652136,0.37779023163436004,0.3929186660520864,0.3727902596348768,0.317686489044139,0.23606778575599274,0.14212812897859037,0.052448645273304145,-0.01819333884997409,-0.06054484288962167,-0.07241724297502185,-0.05909085716699871,-0.030934403694400585,0.0,0.0,0.0,0.0,0.0,0.0,0.0,0.0,0.0,0.0,0.0,0.0,0.0,0.0,0.0,0.0,0.0,0.0,0.0,0.0,0.0,0.0,0.0,0.0,0.0,0.0,0.0,0.0,0.0,0.0,0.0,0.0,0.0,0.0,0.0
0.33199963099689767,0.3628915232810512,0.3704654304220591,0.35944898154019445,0.3379755544755814,0.31500885880265694,0.29761318964999445,0.2897118565540844,0.29120198331982217,0.29882033178028294,0.3077818346575149,0.31348970398184844,0.3134835285906617,0.3076739010681241,0.2980729029347342,0.2877243262079888,0.2792641746730851,0.27435607787440214,0.2729723272251884,0.2737645812563668,0.27482439315188983,0.2744212165292622,0.27204843625710107,0.26824786915388804,0.26431054125518366,0.26157521230459224,0.26057250878897303,0.26107066539977447,0.26178658585861697,0.2609388961713864,0.2569370905658824,0.24889524723688497,0.23736061771996234,0.22395040657228,0.2109463010717293,0.2005956536175509,0.1943375637435245,0.19272404605190646,0.19514318886921178,0.20019007379567796,0.2061766404398024,0.21146158758014608,0.21537130951054032,0.21785382998215222,0.21938568703407124,0.22059850596152622,0.2215714746126132,0.22258304025216394,0.2233414944489883,0.2233083265662965,0.22192412988217775,0.21868293178131795,0.2138952611309282,0.20790792941407313,0.20135872077010625,0.1950599391925343,0.18960584439616313,0.18593287555084193,0.1842119647637343,0.18408564533909363,0.1847215510581444,0.18479162210152253,0.18351473319596162,0.1801057402412206,0.1744179563084894,0.1671311672566404,0.15952881965697213,0.153700934352726,0.15122586574700425,0.15285758612633576,0.15815391290365363,0.16532887319945044,0.1722182827721105,0.17632937663586673,0.1759751969042749,0.17094377969564245,0.16251676113567584,0.15350499045640748,0.1465871068244586,0.1434409219499604,0.14395999969072457,0.14603339009556737,0.1468076678379478,0.14343806137417017,0.13493558514750614,0.12331489613475392,0.11358942579791333,0.1129695629538824,0.12807560486232444,0.16247453792711627,0.2145628742671322,0.27671136979388467,0.33676039490161164,0.3802978601258248,0.39468562457117057,0.3727902596348768,0.31530328235393923,0.2314800232605612,0.13655126034032197,0.04814158933708321,-0.01819333884997409,-0.052926129953749436,-0.054238794086993274,-0.02842898309168662,0.012616184269144544,0.055089712819711895,0.0870042860167477,0.10145329754052254,0.09727519077372457,0.07856376261953575,0.05258988022279558,0.02702880136053708,0.007953874811951568,-0.0020151909831718634,-0.0036291699123347405,0.0,0.0,0.0,0.0,0.0,0.0,0.0,0.0,0.0,0.0,0.0,0.0,0.0,0.0,0.0,0.0,0.0,0.0,0.0,0.0,0.0,0.0,0.0,0.0,0.0,0.0,0.0,0.0,0.0,0.0,0.0,0.0,0.0,0.0,0.0
0.3727902596348768,0.34082333390335945,0.2656107924816305,0.1652807332562552,0.06326964046802273,-0.018193338849974088,-0.06405411385296912,-0.06980544457096656,-0.04183739175726968,0.005542086420440558,0.05508971281971189,0.09189687635712274,0.10751638637515495,0.1013921235233292,0.07976886333802342,0.052589880222795586,0.029614595760810755,0.01734418842808171,0.017298960334737684,0.026348330515988058,0.03856188022332319,0.047708001838246354,0.04966127885148592,0.043520773219987784,0.031540732677826096,0.017932208068133292,0.007103888781242866,0.0022354690874707463,0.004316047092794467,0.012181423684468468,0.023258422206024677,0.034618422441015526,0.04406662967553455,0.050612233036624404,0.054484102907382155,0.05668753177471511,0.05834225479006683,0.060270057765009204,0.06266411734001129,0.06518250011152014,0.06723999973253902,0.06830801024455462,0.06829069798163838,0.06747054973086564,0.06639399284757727,0.06562973265474958,0.0653662619460723,0.06581524607247154,0.06682155563853318,0.06805255486590535,0.06911635907385649,0.06946235693184948,0.0692146610083206,0.06821911870765061,0.06644176748339636,0.06402044134596091,0.061240506576896836,0.05857309920861397,0.05649967204691445,0.05535365658561011,0.055174908086795295,0.055571764409625926,0.05608265615695939,0.05611501832201557,0.05529183061889157,0.053659833840757086,0.051708722337414734,0.05030904255611078,0.05023508478900635,0.0518244010845282,0.0547066659494861,0.05777274381297515,0.05955691503902012,0.05868981051646455,0.054546284731028766,0.04766661542649744,0.03976248994300066,0.03328305339907837,0.030524839068698455,0.03271422349237055,0.03934677483818859,0.0480977416311424,0.0554991204797822,0.05808456251753493,0.05381419253631292,0.043168962450535565,0.0294469700431926,0.018200672867113705,0.015522449691940972,0.026081919283425264,0.05130882156586923,0.08837612951832242,0.1305963325492974,0.16878114963468266,0.19371821997514968,0.19876069059681645,0.18176210635878282,0.1459343397615095,0.09892503314437244,0.050867372584597614,0.011712274156037294,-0.01134516249607832,-0.015410586150139677,-0.0024554119233109913,0.021688639987053684,0.04922638577756212,0.07258803419129498,0.08643765905642037,0.08855721554980232,0.07994170010040673,0.0639603213276082,0.044992296525153214,0.027175200199222378,0.013278638230008605,0.004367856737572966,0.0,0.0,0.0,0.0,0.0,0.0,0.0,0.0,0.0,0.0,0.0,0.0,0.0,0.0,0.0,0.0,0.0,0.0,0.0,0.0,0.0,0.0,0.0,0.0,0.0,0.0,0.0,0.0,0.0,0.0,0.0,0.0,0.0,0.0,0.0
0.5133023472757381,0.4910701629988934,0.41184559201551085,0.29461957861229177,0.16581829928098232,0.05199607755712362,-0.027136067611097322,-0.06305186690753584,-0.059424384502651154,-0.02942610118764029,0.009372320462703686,0.04066398479696414,0.05411463905036264,0.04726139098306265,0.0247906267344616,-0.004392780716129519,-0.03106598642079137,-0.048791321896601854,-0.05583020055757514,-0.05492606835706571,-0.05154459818215079,-0.051449147850285114,-0.05827644025467979,-0.07248915547241175,-0.09146883297545422,-0.1107452600363318,-0.1257975052686674,-0.13339696579945828,-0.13259542723607046,-0.12463072098922041,-0.11214226140335908,-0.09812826122185529,-0.08474351211010796,-0.07292866165325658,-0.062409595454938155,-0.052182997310654546,-0.04125052855573907,-0.028946602380814184,-0.015357117942161595,-0.0012018864705520289,0.012472055681803953,0.024593651440813092,0.034565443903140335,0.04221093119218472,0.04773880792271049,0.051558328654014746,0.05401193565359451,0.05548870370311949,0.05623130791839253,0.05642590255038763,0.0562638861816526,0.05550083069325354,0.05509098971669338,0.055325461272958856,0.05637613616246311,0.058270221123846125,0.060810277097701954,0.06383246399083084,0.06702432366450987,0.07007731794556046,0.07276707218883238,0.07492095294676092,0.07665876277448644,0.07812597002838834,0.07943101914647867,0.08053688631399117,0.08122206975308927,0.08113759505027057,0.07998540381087171,0.0777231503734045,0.07471886691238165,0.07178346581350174,0.0698790048806057,0.06990028395496174,0.07222790063329301,0.07645056872598668,0.08142023814660466,0.08536798945213564,0.08678580930994063,0.08496677076056983,0.0804322853969628,0.07498572823024847,0.07097489458872468,0.07067345684982991,0.0751727661101255,0.0836837594511291,0.09352259407422774,0.10075731918067593,0.1017190621374962,0.09451135578264981,0.08016950411279114,0.06290545199786549,0.04923562454567989,0.0460615875256943,0.058349078967972805,0.0871208314274135,0.12848686734462442,0.17430507003171686,0.21406285748108494,0.23785041529562512,0.23929910729821402,0.2175491969539308,0.1777359410401368,0.12943207208291524,0.08392448609577675,0.0509448859606982,0.03590649770759817,0.03867371347175545,0.05384164589706905,0.07280212748227022,0.08662978296568694,0.08883813812541017,0.07733807260429124,0.05456941967484649,0.026405543948622226,0.0,0.0,0.0,0.0,0.0,0.0,0.0,0.0,0.0,0.0,0.0,0.0,0.0,0.0,0.0,0.0,0.0,0.0,0.0,0.0,0.0,0.0,0.0,0.0,0.0,0.0,0.0,0.0,0.0,0.0,0.0,0.0,0.0,0.0,0.0
0.23929910729821402,0.23386438470696794,0.2027728427859639,0.15394822025183796,0.09914917571893568,0.05094488596069818,0.019523003012284657,0.010355148067316992,0.023001216469376966,0.051583541567426894,0.08662978296568695,0.11775292976934361,0.13655348088652167,0.13877627710126883,0.1253313270141797,0.10183237089491266,0.07674616200252102,0.058836438442948766,0.05428299558729845,0.06461614529319236,0.0860121732113444,0.11022995238081623,0.1273362794881216,0.12894361418316402,0.1114508969179186,0.07798777958480312,0.03823923044527619,0.006310575702538581,-0.003518438970426288,0.01857752305567294,0.07417726766484076,0.15493755191011654,0.2441668053991221,0.3207015750260959,0.3646699199323923,0.3631822052298363,0.3141602241981098,0.22744488668149532,0.12209179397782759,0.021220032089259357,-0.05429295818698084,-0.09138596448997337,-0.08764866859011293,-0.05128387157037941,0.002176967130324658,0.05498180343448276,0.0923697642991398,0.10661056767521639,0.09814620525533381,0.0742536889939249,0.04570673179533448,0.022574610827679708,0.011646912738636082,0.014075010498238123,0.026105385939298672,0.04115792723244762,0.05247958441236939,0.055863261752232406,0.050587378270931994,0.03931535368967492,0.02673060499334372,0.017512686679553354,0.015049877336962975,0.020118536629535957,0.031074262753602516,0.044736027566916414,0.05760046140194999,0.0671931465293596,0.07246289066051913,0.07391065325509694,0.07310426759624589,0.07189017108198636,0.07186670433416312,0.07374166416817447,0.07736005869252477,0.08195584150576524,0.0865060866028474,0.09025289857172512,0.09272691770098244,0.09387290032410743,0.09396311445805565,0.09339674822167181,0.09267839454584872,0.09210118230700748,0.0917594223054638,0.09155701063789799,0.0910755197292319,0.09038028301202704,0.08919165200868853,0.08736308556963837,0.08500595805197299,0.08255066782205278,0.08054921050942417,0.07961706475080652,0.080135471528702,0.08205137815941432,0.08479134070333892,0.08750201678034036,0.08920591703988456,0.08922583428898673,0.08749428337510509,0.08463987637925151,0.08191698729413487,0.08068209421968067,0.08191173567923588,0.08573913675642311,0.09120536755954949,0.09645872727170118,0.09910999057333589,0.09695661353620373,0.08868340815007979,0.0743338273263703,0.055464461077186375,0.03474642108793913,0.015322336286372994,0.0,0.0,0.0,0.0,0.0,0.0,0.0,0.0,0.0,0.0,0.0,0.0,0.0,0.0,0.0,0.0,0.0,0.0,0.0,0.0,0.0,0.0,0.0,0.0,0.0,0.0,0.0,0.0,0.0,0.0,0.0,0.0,0.0,0.0,0.0
0.3631822052298363,0.32306418832722855,0.23948360487242354,0.13234922941857735,0.02669749092163228,-0.05429295818698084,-0.09559233081909303,-0.09367091809501361,-0.05663628993958259,-0.000773054557004616,0.05498180343448276,0.09473261723956504,0.11004046297130197,0.10122649663643775,0.07596461012859627,0.04570673179533448,0.021313998530916294,0.009774359748924811,0.0123554093744144,0.025129420465740702,0.04115792723244762,0.0533279316467947,0.057113033357334884,0.05172412595646361,0.039953610236194356,0.02673060499334372,0.01703265397501631,0.014333423994810683,0.01945890705320931,0.030699723888642862,0.044736027566916414,0.057889509323538535,0.06755935688929166,0.07272959962094164,0.07401476840182407,0.0731042675962459,0.07187040511531048,0.07187929338570165,0.07379901084874096,0.07742334973548405,0.08195584150576524,0.08635188605747265,0.08990707837223916,0.09228265167840907,0.09353574656039737,0.09396311445805565,0.09382421788627317,0.09343311749686775,0.09292302292704085,0.09231151505988174,0.09155701063789799,0.09019043732785396,0.08876401384800645,0.08737229257185701,0.08610043655248574,0.08500595805197299,0.0840690172646807,0.08327688301966882,0.08264154912744412,0.08220583513259286,0.08205137815941432,0.08217612509977776,0.08280372779891744,0.0839905089118904,0.08564729348978375,0.08749428337510509,0.08906009408465203,0.0898830849509112,0.08957638246715813,0.08807011042300024,0.08573913675642311,0.08335282387480769,0.08193770694957066,0.08230913961074889,0.08473118470847192,0.08868340815007979,0.09289270975167095,0.09575517119958267,0.09587294751175185,0.09271597453622311,0.08702409772746215,0.08073078969113137,0.07647404740193334,0.07651843770507423,0.08177997002614629,0.0911648425902483,0.10156276875192657,0.10883438885875964,0.10909372954348606,0.10041904314624596,0.0840613377091846,0.06463901691188084,0.049320482668405656,0.045591230245430193,0.05885125079788705,0.09028797093628073,0.13582067908826392,0.18685693537277423,0.23215401915016304,0.2609819658325382,0.2662356493427558,0.2465342904368337,0.20686617139395932,0.15694882425320875,0.1084742964564916,0.07172533474564212,0.05266604304038597,0.0516501414881099,0.06356249477980794,0.07989943879640835,0.09169475896401542,0.0923379774928324,0.0796188715315386,0.05588229005892955,0.026958647585254698,0.0,0.0,0.0,0.0,0.0,0.0,0.0,0.0,0.0,0.0,0.0,0.0,0.0,0.0,0.0,0.0,0.0,0.0,0.0,0.0,0.0,0.0,0.0,0.0,0.0,0.0,0.0,0.0,0.0,0.0,0.0,0.0,0.0,0.0,0.0
0.2662356493427558,0.2606444468310448,0.22769053204743459,0.17659387023072143,0.1202670306972748,0.07172533474564212,0.0405498058770902,0.03096847438275261,0.041110541054762716,0.06433178778101119,0.09169475896401542,0.11458283966081752,0.12763563506841477,0.1293574900986686,0.12194576308262121,0.1098897139845154,0.09759819951704868,0.08916746289534286,0.08631143097499482,0.08851819767685709,0.0936667224765798,0.0989778789402236,0.10222623828893423,0.1022552561366227,0.09918141728415988,0.0941023961995083,0.08849701643051563,0.08375417828862068,0.08066107175063118,0.07927336014410291,0.07903458116805576,0.0790811785435755,0.07866169361242621,0.07745742623895911,0.07577677092615648,0.07452611754756412,0.07497533906363633,0.07824496265331808,0.08486276930528817,0.0943576565919467,0.10514648969805691,0.11489633412264101,0.12094181283916196,0.12136966431732661,0.11581560652565275,0.10591014003189578,0.09515947565799568,0.08769227993379396,0.08705149074882725,0.09469090924631784,0.10910311258427217,0.12587924169824993,0.1394528739307722,0.1446866336879346,0.13947903369267275,0.12643103373810355,0.11294072503482765,0.10974795746408013,0.12747851714313635,0.17290425849531868,0.2457629452368021,0.33730779244254216,0.43176473957511124,0.5095443164488219,0.5523942930046895,0.5484671357616822,0.495788518123781,0.40331954686611426,0.28851514249751786,0.1728878790299764,0.07644256704699814,0.012686328585529557,-0.014077322054576085,-0.009084427737276156,0.015536507881600497,0.04501457847248116,0.06640042195967137,0.0721353860609682,0.061150308118985836,0.03808518340744782,0.010759958765184237,-0.013037025268095779,-0.028088262081727225,-0.03334267471193194,-0.031629804092476656,-0.028126973365184882,-0.028243246421546606,-0.035512674603379674,-0.05066476306003625,-0.07153541120430472,-0.09400887248517995,-0.11353234150508526,-0.12632909580453636,-0.13059049056765407,-0.12656975421014358,-0.11610794626411673,-0.10183068221898604,-0.08605112618703314,-0.0704203475651129,-0.05560730362946827,-0.04146112461641489,-0.02747771879809742,-0.013050275045766028,0.001895521431924202,0.016865155625442392,0.03087636317269258,0.04262481224525508,0.05102628067489991,0.055165423653185414,0.054628910972483215,0.04962796686071192,0.040876968000286444,0.02996474034423792,0.018501318309419403,0.008078964865948486,0.0,0.0,0.0,0.0,0.0,0.0,0.0,0.0,0.0,0.0,0.0,0.0,0.0,0.0,0.0,0.0,0.0,0.0,0.0,0.0,0.0,0.0,0.0,0.0,0.0,0.0,0.0,0.0,0.0,0.0,0.0,0.0,0.0,0.0,0.0
0.5484671357616822,0.5265745833704781,0.4450308208821662,0.3241672670580678,0.1920080444733735,0.07644256704699816,-0.0021881577233376346,-0.03557669921461098,-0.02839556102889511,0.004770477305784093,0.04501457847248116,0.07522648514978586,0.08506377547654259,0.0728583937862953,0.0446357441909097,0.01075995876518424,-0.01841403285498969,-0.035973176539250494,-0.04047396390427291,-0.03560499943905728,-0.028126973365184885,-0.025081530701480198,-0.031015212928808066,-0.046752715810388056,-0.06946167468819828,-0.09400887248517993,-0.11497077313529187,-0.12821519933374673,-0.13204926558751162,-0.1272140280308356,-0.11610794626411673,-0.1016968327459459,-0.08628964488681523,-0.07111769648800019,-0.05632788478278808,-0.041461124616414886,-0.026151390640076592,-0.010408785676046632,0.005085733559972934,0.019221461325592347,0.030876363172692576,0.03928104674688672,0.04447685190197364,0.04716152407760079,0.04847656386032259,0.04962796686071192,0.051458708221842196,0.05444691300252824,0.05851958219129129,0.06321946885790386,0.06790938296370884,0.07162582130556344,0.07450129599627624,0.07626257628682562,0.07681589461680775,0.07626952504908459,0.07471800278240434,0.07280077448534893,0.07106103796780744,0.06999071721159035,0.06991959803545919,0.07090970788816861,0.0728428216092866,0.07534672181768563,0.07795515295221572,0.08024601004742145,0.08194483600035365,0.08298516307379039,0.08343678830568457,0.08341273571898396,0.08295887233665261,0.0820097360474288,0.08036628271329369,0.07789214788984938,0.07464931685437678,0.07101733238502897,0.06774099015950386,0.06558524940844762,0.06528860162826967,0.06714566668111022,0.07077650379503649,0.07518560629080212,0.07881101059954657,0.08031910015432363,0.07903135036719153,0.07528663866809211,0.07048118228378698,0.06659461015818414,0.0655834186685442,0.0685377204102302,0.07509405508579474,0.08332141740307643,0.0902888524337795,0.09299140147762099,0.08957142514110257,0.08026802604288612,0.06770169928558646,0.056438857160981716,0.051568771351975504,0.05706530366366164,0.07425681255745184,0.10095380987446183,0.13178663804474994,0.1592949892856213,0.1759887375464619,0.1764825349787773,0.1590591543649407,0.12637927197750573,0.08461548728046409,0.04183777640956103,0.0058346639008835695,-0.017931798736549053,-0.027433362395436714,-0.024407422334255195,-0.013372200214944679,0.0,0.0,0.0,0.0,0.0,0.0,0.0,0.0,0.0,0.0,0.0,0.0,0.0,0.0,0.0,0.0,0.0,0.0,0.0,0.0,0.0,0.0,0.0,0.0,0.0,0.0,0.0,0.0,0.0,0.0,0.0,0.0,0.0,0.0,0.0
0.43862586428105405,0.41293650914970065,0.3379968445764839,0.23200215152068923,0.11940800121751043,0.02413942972991196,-0.03673249249634495,-0.05684878759353316,-0.04115284648133108,-0.003095915012146746,0.04032792546438683,0.07397208336539123,0.08876587818682757,0.08336687561035645,0.06321283153746095,0.037535815635506446,0.015567631166800556,0.003492837498256093,0.0027704188660465515,0.010458097376111867,0.021023951750903415,0.02878123708038294,0.030100158197901627,0.024427887400577483,0.014078204388336435,0.0029665537983233456,-0.005109619894627063,-0.007816486441034168,-0.005014823531443357,0.0014946848178072028,0.008905476461674408,0.014554456239731858,0.016986440840461373,0.01627105868173014,0.013784290696614784,0.011508784581127585,0.011185696420153483,0.013720979974047668,0.018923255678122336,0.02571381882895774,0.03262032483726881,0.03829575673600153,0.04203977113751787,0.04383771749794541,0.04422700395183131,0.043966346369389904,0.04363957453635073,0.04356710297145709,0.04365389362922803,0.043536190645892585,0.04279107771617178,0.04087975545334813,0.03824876960249367,0.035130706976251154,0.03192527267841901,0.029117731223354492,0.027126420065312407,0.026342527112244427,0.02692425302609189,0.02880872992116867,0.031726023923331986,0.03519465057739169,0.038750878004354776,0.041848235925361375,0.04398189127153652,0.044758840588875415,0.04394515634582516,0.04159743538283001,0.03800145250373298,0.03370619129999979,0.029467836200308024,0.026117046292178085,0.024424416637209668,0.02485155136996917,0.02741236701576924,0.031606013735937626,0.036475936250066635,0.0408085815532871,0.04341489241969845,0.04344761504920837,0.040653097307115714,0.0354770592260469,0.029008501329962105,0.02270895872862868,0.018062665760542954,0.016206471722646405,0.017645734387663058,0.022168666277124452,0.02890468537576797,0.03658776580023111,0.04389216452303938,0.04973135677830699,0.05352912931648972,0.05518561806839435,0.05501160877285481,0.05353993807227686,0.05129792415701514,0.0487461749223516,0.04611602722034456,0.04350178728613668,0.040968195224350294,0.03862499491457146,0.036741989472170715,0.03558111850030412,0.035315268690349136,0.03589676180096818,0.03696196096869807,0.03790872771367536,0.03795444901819907,0.03638049190300679,0.03276545060880994,0.027135680621267668,0.0200658272209383,0.012484931761936055,0.0054764106578801845,0.0,0.0,0.0,0.0,0.0,0.0,0.0,0.0,0.0,0.0,0.0,0.0,0.0,0.0,0.0,0.0,0.0,0.0,0.0,0.0,0.0,0.0,0.0,0.0,0.0,0.0,0.0,0.0,0.0,0.0,0.0,0.0,0.0,0.0,0.0
0.27578743801731953,0.26535023938787394,0.2217221912340224,0.15336428501558175,0.07358222988438225,-0.002859783948537372,-0.06332653314047229,-0.099878625596429,-0.11059918206737884,-0.09912073816600556,-0.07283982370931967,-0.04051920122393929,-0.009779043058253733,0.014375893581465422,0.030122605621757337,0.038351168763105126,0.04149077451817493,0.042400207544942,0.04323049641894217,0.044967997131188646,0.04749129126743938,0.04995302351563632,0.05153131768983503,0.051751962808190125,0.05071829571939187,0.049031552586305774,0.04747766687494892,0.04687988800759828,0.047754305610760044,0.05024558336219335,0.05416145800989113,0.059026143374948395,0.06439147252702655,0.06979809070230228,0.07485365152725157,0.07923820832114684,0.0826393651210771,0.08494745729253927,0.08613784405999034,0.08631670176440492,0.08570075084968298,0.08450501305479179,0.08302512812256775,0.08143246932779143,0.07975322379056789,0.07787005982077559,0.07552843402365213,0.07260576453264829,0.0690898424936042,0.06516832888612456,0.06121511221172687,0.057506378981457405,0.0548164995437651,0.0534446137564072,0.053433180971992955,0.054572235465577885,0.05640934622467075,0.05850209993726933,0.06041928866246629,0.06186242563752568,0.0627206523804431,0.06306107003177351,0.06309499995944712,0.06315927553989842,0.06355686074815411,0.06443882926495384,0.06571412004733732,0.06712993625294664,0.06825652966349365,0.06866598644564194,0.06808850797061461,0.0665015084118045,0.06425259566091647,0.06186780285750784,0.05995209666129072,0.059016545791142995,0.05930484472005629,0.060815580795659484,0.06319896654524246,0.06591816752077115,0.06841483530413978,0.0702350587520794,0.07122711978696131,0.0714049420224916,0.07092978340705428,0.07000747397090196,0.06875685307315986,0.06732805770546756,0.06572671210119181,0.0639716451343036,0.062186520550329534,0.06059602433814851,0.059650255833960615,0.05967836488942157,0.060815756003466996,0.06288998373565527,0.06536101260110928,0.06758057880735256,0.06880509872293179,0.06853237941800733,0.0667194381723267,0.06382550167321968,0.060815454981167714,0.05871180525998417,0.058281238081644385,0.059708846888677745,0.062406823722786324,0.06519658486316804,0.06647814811074734,0.06474852946308425,0.059083232219885005,0.049439991181989405,0.03685878707807005,0.023083703188691164,0.010179866395682378,0.0,0.0,0.0,0.0,0.0,0.0,0.0,0.0,0.0,0.0,0.0,0.0,0.0,0.0,0.0,0.0,0.0,0.0,0.0,0.0,0.0,0.0,0.0,0.0,0.0,0.0,0.0,0.0,0.0,0.0,0.0,0.0,0.0,0.0,0.0
0.3564927582775701,0.3383289067808773,0.2809510122441576,0.1987022944409214,0.1107896241354513,0.03581219627966217,-0.013243000893871194,-0.031905801590809364,-0.024416047580596775,-0.0012078131329376228,0.025202848268831186,0.04441553335728728,0.051074408166935634,0.04556801597349593,0.03262236622932988,0.01853852857470197,0.008300477050502865,0.00373669826834428,0.003309147413018989,0.003477818507001516,0.0008661860753720866,-0.005829965406687348,-0.01505597569660212,-0.023143946706270915,-0.026201794306004427,-0.0222793094425038,-0.012786158500200102,-0.0022534002526504856,0.003385624102685769,-0.0003851558302206892,-0.013987950618179352,-0.03244936472227664,-0.04604421504789371,-0.043265620131663546,-0.01493770663670203,0.041819843465585954,0.12128386554214947,0.20958990405932398,0.2878938557688522,0.3375227300837078,0.3454563246159104,0.30837005161106157,0.23392138150018402,0.13876431946009166,0.04394193102469682,-0.03091642415441146,-0.07278095848868389,-0.07824585449400068,-0.053560359023092634,-0.011865435252378731,0.03132051323996931,0.06264554850886793,0.07511546158795464,0.06843273309434306,0.04828224808980473,0.023576743785473725,0.003011493181890291,-0.0075631055348309275,-0.0067629080124670116,0.00264493771848833,0.015359043345349585,0.025706241415503386,0.02986125362542772,0.02675307790897168,0.018076895836682563,0.0072911631839680325,-0.0018526601928885147,-0.006602271272406894,-0.0059970121765814755,-0.0008399882226566012,0.006933302554795005,0.01516305184368834,0.0222629123966304,0.027620048410481303,0.031522817761402325,0.03473102294411554,0.03794285749696241,0.041341880413687124,0.044537838426607294,0.04673247629208049,0.04709332435554955,0.04514237104877383,0.040953608651178273,0.035175905629422494,0.028790990598344054,0.022777505372936976,0.017787601397163847,0.014073283584385688,0.011409269293863789,0.009316811073928125,0.007310422318210567,0.0049228700300048825,0.002476308313309376,0.00015175554585744426,-0.001784026318341504,-0.003071851867642405,-0.0035071349517981063,-0.0030063466133772084,-0.0014780924030794954,0.0012159905855737407,0.005299905665442278,0.011036841063201259,0.018676948311447165,0.028202388150782128,0.03918447636460353,0.05068893461604954,0.061307902877255946,0.06941460070889864,0.07344475224692029,0.07231437865076994,0.06575438238566471,0.05446409952146892,0.04006265063982025,0.024732196941076597,0.010754383431302127,0.0,0.0,0.0,0.0,0.0,0.0,0.0,0.0,0.0,0.0,0.0,0.0,0.0,0.0,0.0,0.0,0.0,0.0,0.0,0.0,0.0,0.0,0.0,0.0,0.0,0.0,0.0,0.0,0.0,0.0,0.0,0.0,0.0,0.0,0.0
0.3454563246159104,0.3136899910555376,0.24117276954424025,0.14502501558065814,0.047346388229321135,-0.03091642415441146,-0.07552715560188832,-0.08229656799662571,-0.057279345238857714,-0.013987209989679771,0.03132051323996931,0.0646571518009549,0.07808159340086528,0.07113960820996901,0.04981052056611816,0.02357674378547373,0.0017523429936834379,-0.009432464666159237,-0.00847783420935097,0.0016730340470955877,0.015359043345349585,0.026534599954359712,0.03108267780990907,0.027864650783291364,0.018701127294761002,0.0072911631839680325,-0.0024086332586251563,-0.007448004218434925,-0.0067972484280463975,-0.001311518576939315,0.006933302554795004,0.015549829210619875,0.02285308506951798,0.028179711421842182,0.031852912320164614,0.03473102294411554,0.0375629087552237,0.04071884160619399,0.04389803490093868,0.04632138608342462,0.04709332435554955,0.04554829266163519,0.041646991906667416,0.035912243124582424,0.02927664461224712,0.022777505372936976,0.01722235399977949,0.013066894000017922,0.010303416887367862,0.008566712843797546,0.007310422318210568,0.005801257367309545,0.004026610037164418,0.0018424190680974282,-0.0006444850456285121,-0.0030718518676424063,-0.004889504267664111,-0.0054574461044773126,-0.004167838242051777,-0.0006115947724523967,0.005299905665442279,0.013244606386320048,0.022636646419752937,0.032613451810887116,0.042240466267122176,0.05068893461604954,0.05736737689064881,0.062043467789227605,0.0647774507309927,0.06587075665516093,0.06575438238566471,0.06486663561162263,0.06359911173054225,0.062221061607246636,0.06090665405762882,0.059778476309475984,0.0589494390202716,0.05856000737310736,0.05874658606782495,0.05960433373024182,0.06113004241998388,0.06317289834014994,0.06543643388334755,0.06749422432473604,0.06887179989505052,0.06914526571402958,0.068017827545418,0.06545238624300083,0.06159822762059199,0.056791748534167324,0.05148629150686714,0.04613633825419748,0.041201481217180064,0.03696017880336142,0.03353116819541317,0.030893682409425183,0.028924507845054796,0.027502756082300017,0.026503779160771544,0.02585394335600527,0.0255369872035993,0.02556787131933487,0.025964245147246212,0.026678735061251797,0.027569128992383913,0.028389018453507008,0.028815004191975496,0.028499523171295546,0.02715875445738386,0.02465016629633279,0.02103002298220092,0.01656586844102425,0.011710467816706462,0.007004529834669355,0.002970214023752968,0.0,0.0,0.0,0.0,0.0,0.0,0.0,0.0,0.0,0.0,0.0,0.0,0.0,0.0,0.0,0.0,0.0,0.0,0.0,0.0,0.0,0.0,0.0,0.0,0.0,0.0,0.0,0.0,0.0,0.0,0.0,0.0,0.0,0.0,0.0
0.29980748029557486,0.2727808331073991,0.21058259568918758,0.12812613258284883,0.04473601210309417,-0.02117075160731456,-0.05710521978965469,-0.05900528412736337,-0.03187676193922976,0.012584797937606378,0.05997442228486166,0.09694438878549044,0.11620593162086514,0.11665328977819073,0.10286928065515044,0.0826420677709164,0.06378296165331093,0.05172270021405656,0.048057977299902854,0.05085813083397994,0.05615299577448738,0.05984840422776872,0.05948677832927277,0.054818855151283145,0.047442245155446455,0.0396671216949269,0.03323220558537915,0.0285494965951416,0.02469399420948345,0.02018970424091467,0.014123726020743795,0.007000759776702689,0.0009255243078775418,-0.0011444559013190669,0.003294304274239192,0.014962326448580839,0.03210761612694087,0.05080311274843247,0.06632811766739961,0.0750411442667421,0.07600720050177916,0.07162745034540982,0.06681580584918662,0.06700861648825295,0.07564823542495032,0.09222411689478083,0.1117851993321401,0.126475981481949,0.12856473326151177,0.11412146043024839,0.08585382521162849,0.05361642050484026,0.03317095912836739,0.040831646401521496,0.08820929306235344,0.1773389228378742,0.2981870163668872,0.43003285807536235,0.545985341183816,0.6199841489540644,0.6340097119591878,0.5831708154588778,0.47768275595323806,0.339830725413147,0.19800244900805705,0.0790452968471251,0.0012697328880943333,-0.02923345909730763,-0.019194285273165662,0.015420263357446154,0.055202098690411844,0.0833312757317042,0.09048212407910679,0.07618697376162227,0.0475606554107726,0.01566821676401542,-0.009011154804800593,-0.019844169262507375,-0.016086957443017212,-0.00226852971339405,0.014105367045941378,0.025499251557302864,0.027253181905628344,0.01869135503687678,0.0029246138406646477,-0.014701292048213029,-0.02890197481495437,-0.03577923931374324,-0.034227561386508586,-0.025738665670319513,-0.013444524984952388,-0.0006072697826583832,0.01014266398676349,0.01773262613354177,0.02264099515781416,0.026406179841904374,0.030724027842738005,0.03720254402095016,0.04643179722410099,0.058001902720666645,0.07069598732420865,0.08271776364069076,0.09272521026336315,0.09974423454505883,0.10359306629972154,0.1049288511879241,0.10494780447413637,0.10530235907224798,0.10708859959342122,0.11052114197218506,0.11470066708214789,0.11745362252835562,0.11718555114924445,0.11214733154674036,0.10198849471058109,0.08837566810561366,0.07483871415021216,0.0659690737624741,0.06563945700006789,0.07542054385210263,0.09350696973246604,0.1147385655826949,0.13206929742255313,0.13878962579082058,0.13120026663433085,0.11052038501125361,0.08322798071023249,0.05951062186741307,0.05002293732273039,0.06202824723724966,0.09616748855512092,0.14509566566553445,0.19472885674051332,0.2278704397720541,0.22934391101874982,0.19100559769318132,0.11501717065714347,0.014171209933443545,-0.09089929318007214,-0.17700807344954272,-0.22459953889887277,-0.22299373941696043,-0.17317696388290213,-0.08726880245762751,0.01498656081950429,0.11162014208879885,0.18404984252375944,0.2213642662332233,0.22201153836334314,0.1928625239176085
0.6340097119591878,0.6057386124466281,0.5083086098822177,0.36605492090475505,0.21209610488649,0.07904529684712511,-0.009699073964455877,-0.04511971868511875,-0.03349665043287205,0.007425511018873329,0.05520209869041184,0.08996710803373403,0.10026939608362198,0.08512363461900199,0.052610077555703176,0.015668216764015423,-0.013220544774167209,-0.02608758229857334,-0.021809755637953575,-0.005509420817445883,0.014105367045941375,0.028222354449700997,0.03127842764060429,0.022364127407909544,0.00499274338644044,-0.014701292048213025,-0.030602188086168786,-0.0382740803019868,-0.03648486744731307,-0.026997704456423955,-0.01344452498495239,0.00044828497622330355,0.011657961728348282,0.01907144693634545,0.02336871607795648,0.026406179841904374,0.030217385299753242,0.03648190269723327,0.04580186770917364,0.05766375371059617,0.07069598732420865,0.08301122399435472,0.0931174971223429,0.10006314309082988,0.10375007662882302,0.1049288511879241,0.10478186869130451,0.10496532176077218,0.10667401268431799,0.1102109994879675,0.11470066708214789,0.11775242838633494,0.11773233527538039,0.11276261361967675,0.10241447576615476,0.08837566810561366,0.07420484958029029,0.06480758252168883,0.06432954243914121,0.07451096076656362,0.09350696973246604,0.11577538097393106,0.13391343232846906,0.14081242483096046,0.13256888851561327,0.11052038501125361,0.0814586672433902,0.056353833409628504,0.04654669315348875,0.059665163721821866,0.09616748855512092,0.14782530533251106,0.19954435421355998,0.23311991054842138,0.2328810467881497,0.19100559769318132,0.11070481226068428,0.006519422305660483,-0.0993025981184614,-0.18272258091048416,-0.22459953889887277,-0.21618656464156616,-0.16098131310914024,-0.07369374045198566,0.024387226700990226,0.11162014208879885,0.171763147174044,0.19833268658615572,0.19487021010069788,0.1726390860121602,0.14612393348084415,0.1278997442694408,0.12539434862281423,0.13887443719678866,0.1625525479690106,0.18741998157742662,0.2045952080996738,0.2088427987488441,0.19946217127037388,0.18008729489995523,0.1568826336630222,0.13595466372919932,0.12180111884255539,0.11567982660555803,0.11594345199961205,0.11922006097130897,0.12198372749126463,0.12212803675000354,0.11943559932120716,0.11550084463980213,0.1128816081345408,0.11390290158639878,0.11984448042615235,0.13019412340418388,0.14285778450406578,0.15481119475702135,0.16295899494230967,0.16522826048068362,0.16086977280667628,0.1507407104701295,0.13707649561069224,0.12289769203589823,0.11149646045586248,0.10549201354489947,0.10638420930456627,0.11427661630965268,0.12779994867145536,0.14480037477666488,0.16238096903788557,0.17773646860183578,0.1887728482015116,0.19463206838653266,0.1953362291831401,0.19211701622597477,0.18668818811290416,0.1806404208014614,0.17491492212250598,0.1698486658711084,0.1650478781031286,0.15991205070806083,0.15412110872047644,0.14788868258550744,0.1422635028334701,0.13842026509660868,0.13724761977216282,0.13879885949500576,0.14187245333979603,0.14445501781744338,0.14373862314491642,0.1371138211802368
0.6365310415630033,0.5599616223474368,0.4053909313347113,0.20888221248707028,0.01576056943970832,-0.13195198383753365,-0.20688338008380944,-0.20244064738625897,-0.13314362816809056,-0.02849724999936379,0.07690564634331598,0.15365985887112962,0.18565372241209374,0.17259794433224845,0.12772394811389015,0.07153307676628555,0.02401572882468649,-0.0013227464271663512,-0.0009762424621487997,0.019217205162703206,0.047697419595751495,0.07204630015217331,0.0838067956918479,0.08061658720347091,0.06612059734005615,0.04767817393855603,0.032949321753185316,0.027384740927786977,0.03235244887349619,0.045363244380183465,0.061607697650446894,0.07594581924827568,0.08524059450512776,0.08893409773307906,0.08891178654677234,0.08838617349306378,0.09030295642433368,0.09659736441588264,0.10733859507443316,0.12101612310284598,0.13526621017223622,0.14762516012194787,0.15664254027665248,0.16186317304755685,0.16376006309076094,0.16330612520021479,0.16136007760096485,0.1587552721126799,0.1559004496198169,0.15296038484858132,0.15003828921557438,0.14684657411156607,0.14444419181819426,0.1431777955440197,0.14325252277832284,0.1446616368506957,0.1470605639948867,0.15003437879446577,0.153143746243066,0.15597011602281832,0.15816405565396913,0.1593970918904818,0.15963327528827617,0.15885116278998887,0.15713826815669493,0.1546927927812401,0.15165870458344594,0.14859424401628707,0.14596380187061891,0.14419102414217108,0.14357290439631554,0.14403891880733297,0.14569154168022824,0.1483750554876654,0.15187089291917627,0.1559565360376931,0.16022990635667905,0.16470397515131263,0.1692149189051021,0.17346993652003742,0.1769858569229404,0.17896967441209827,0.1789507425685791,0.17658766692538855,0.1720243997427112,0.1660056913145189,0.15961439615248066,0.1545215033370294,0.15199768058120805,0.1525906718288949,0.155827119430966,0.16006591928384276,0.1635264381215524,0.16439358794260336,0.161775303039744,0.156232688383294,0.14960218671794792,0.1451602773696613,0.14587576258154547,0.15344516088358573,0.16735929652079584,0.18436881116915954,0.19979268422621568,0.20806593460165299,0.20465940386345907,0.18763559607144956,0.15845979017784784,0.12216226292472963,0.0858134445736151,0.05681367628815079,0.040912647461114025,0.040616423259707886,0.05492416505193403,0.07944417609042843,0.1079863326661804,0.1344398160733962,0.154382744092137,0.1663663384919794,0.17152403148287163,0.1728451688901741,0.17379046049195937,0.1768233135481366,0.18277055516602767,0.19029005106391772,0.1966245522287942,0.1987389218069644,0.19445687228411082,0.18363349926144126,0.16797678500993427,0.15073373753094066,0.13571991712238946,0.12606790498413153,0.12360350071998254,0.12790498447032636,0.1366277535223028,0.14624356159984114,0.1530303591281544,0.15449279587723402,0.14973452085523295,0.1399182992547032,0.12799288197659833,0.1178195120283027,0.11336985024377375,0.11718608927891996,0.12967745543459855,0.14879674942796817,0.17026313807830462,0.1887568941784425,0.19878971754006494,0.19621690250508783
0.9746159661601465,0.8929275028430413,0.6972830014463894,0.43375317251086565,0.16237284384183087,-0.059557598274938096,-0.19274462517601032,-0.22478031961374756,-0.17098493743689808,-0.06689000602115205,0.044431430595743976,0.1257863131555797,0.15619669256835714,0.13451664767269014,0.0765368284221419,0.007033071919515883,-0.05005169293944549,-0.07937994719561324,-0.0783037890190331,-0.055769059351201966,-0.027369397943643844,-0.008851761542225188,-0.010074800300211661,-0.03232627532575977,-0.06880571915021436,-0.10798234584772708,-0.13816541985936684,-0.1515830882955538,-0.1464167199850862,-0.12649509889037513,-0.09904955069720496,-0.0717041845012135,-0.049678838901355216,-0.03459567855133715,-0.02472771647359268,-0.016492028105101388,-0.006494481184038005,0.007285056350551106,0.02460635146862585,0.04341211518991489,0.06087929879493642,0.07448638137478027,0.08321671907813265,0.08746152461277008,0.08865386622536271,0.08849666817035946,0.08813679597041978,0.08812897875850154,0.08829178257551497,0.08819397566801196,0.08764478391968876,0.08637249282711121,0.08621992546558355,0.0879930279260247,0.09197828725178582,0.0976516587685363,0.10359792905056882,0.10804794210641572,0.10941392138736643,0.10696128536881884,0.10126778510482888,0.09411990680091185,0.08847479637576092,0.08718370433268492,0.09203519195508501,0.1028864390903077,0.11722772485293187,0.13087977855278243,0.13882216988728446,0.13670847033841135,0.12226757516780729,0.09614631304259622,0.0621503590165761,0.026350674285675047,-0.004389928565364957,-0.02415613973025677,-0.029477912760223282,-0.020076588820720206,0.0013498920610697626,0.029989320397959922,0.060308549420125104,0.08741950315927256,0.10828185776975391,0.12208323786270277,0.12988992494597298,0.1338114459750504,0.13592834943096832,0.13774617319952412,0.13969057620596245,0.14128324574256096,0.14163098157823298,0.13989872592923303,0.13614353075205252,0.1310715238026304,0.12591038783104086,0.12194024205862337,0.11986446183471001,0.11993227339024765,0.12150155842322793,0.12345846623560024,0.12467926898847945,0.12432732744966331,0.12258871711501722,0.12018132427652421,0.11819456868490812,0.11764458546020519,0.11900719785463548,0.1221822161086063,0.1262839615135912,0.13003072102448976,0.1321774762195942,0.13185755862657356,0.12899421648270687,0.12400521765331818,0.11766432904879955,0.11078431228446321,0.10389908573913299,0.09736610408584162,0.09119878078191603,0.08541052643565342,0.08028265453743354,0.07643663059187607,0.07498333341257933,0.07689088757187604,0.0826754238102389,0.0920400871702098,0.10374762213858649,0.11575146159372841,0.12573851392235508,0.13174958766105638,0.13277086307396796,0.12902930422747244,0.12203917695955085,0.11397838317793751,0.10703598313163541,0.10270798221410944,0.10127938670421008,0.10206390743593408,0.10347434506496063,0.10386419985515657,0.10227251007395702,0.09882126015586237,0.09499108242784915,0.09275344108742326,0.09388282489917814,0.09911806120567603,0.10755739394393585,0.11688689888048841,0.12363590531389959,0.12429873956317634
0.3085795442711841,0.27672655196824897,0.21009157759055322,0.1261527996799421,0.046438102990444825,-0.009543062679008533,-0.029711941168525255,-0.012112993244308434,0.035095056211910045,0.09683909756671662,0.15606501899089967,0.19872777302274833,0.2176339580843782,0.2134368086166489,0.19327117555650986,0.16750444110286877,0.1458440746865858,0.13448568144908699,0.13455748952299312,0.14268232742311615,0.1529730687699607,0.15953747731843573,0.15885128548285657,0.15063775136931876,0.1375845443454568,0.1239603923349368,0.11374914239471626,0.10937642966990638,0.11087942295204706,0.11623403442981035,0.12236647260404632,0.1262484815337535,0.12641872898152282,0.12299894533752452,0.11748862158395805,0.11196269183880501,0.10829692588149319,0.10705034801280396,0.10764540606001627,0.10865815674263962,0.10852828012764971,0.10620770616298505,0.10179122992648604,0.09632001246229692,0.09135363560810338,0.08829332750784732,0.08768536789750095,0.08931576047215108,0.09214888289412863,0.09490635991771335,0.09666278601541246,0.09697414930310828,0.09683809485206758,0.0972454672721668,0.09891433677091183,0.10174376610497117,0.1045236116490859,0.10550494795394161,0.10296291078351988,0.09614853624162095,0.08594868240111038,0.07478642679257966,0.0664509981126964,0.06422640749327725,0.06963413757072302,0.08143666309248296,0.09542642223129938,0.10609169446348075,0.10801809094084655,0.09836004053431345,0.07851044130863515,0.054242694778554076,0.034841465814911814,0.02967890741859474,0.04496529151955366,0.08090132414988274,0.13034856061710082,0.18052879746130185,0.2157907819288107,0.2223798449054027,0.19289606786630334,0.12899386679456848,0.042102017006323926,-0.049699302674035904,-0.12625019456937725,-0.17075793252497512,-0.17445855210109948,-0.1383206030376459,-0.07283562789221042,0.005471081871359992,0.07887821844880924,0.13312662422126023,0.16126509104578846,0.1641499999616791,0.14916297662307865,0.12702850576309208,0.10794379738867074,0.09886619724963197,0.10159412668265154,0.11319225193334895,0.12778751427791193,0.13893012956159229,0.1422806996273572,0.13649516486804766,0.12341800356178012,0.10705087877409902,0.09188481133614125,0.08153784661339282,0.07750598576017274,0.07910447235879023,0.0840683260702149,0.0895304719469777,0.09321873994989857,0.09392046555265779,0.09174996354339848,0.08787236046158442,0.08390254452139273,0.08146578907196428,0.08154725819720231,0.08439263008025781,0.08957970044285407,0.09619539619466558,0.10324126037601826,0.10963606679831943,0.11443408300538917,0.11692985496237389,0.11670756443192722,0.11389069036456019,0.1090000731900938,0.10303100082053905,0.09733678187613434,0.09326927680778757,0.09219412605720052,0.09461840956517349,0.10013193190930406,0.10740937353820301,0.11456913367718552,0.1193308253326143,0.12005074662892423,0.11607003868547269,0.10797145240189067,0.09745321539711406,0.08705072083562648,0.07924989784506534,0.07582145223859382,0.07724398736226924,0.08240591821493223,0.08906269939807632,0.09412025092459943,0.0946191385788731
0.4060582804417928,0.3785177955410603,0.30613955908802803,0.20748321438911504,0.10663092427506286,0.026436335794874446,-0.017652565498206593,-0.021031142084272036,0.00972212563750047,0.0599684715669532,0.11217115271961553,0.15128508358143083,0.16901545638382992,0.16512567679646947,0.1462094437170956,0.12240937438569835,0.10336447320067527,0.09524383018415962,0.09903247724904085,0.11107381700096654,0.1251237098027662,0.13493874475093542,0.13685044245379885,0.13064567441643896,0.11928674557111162,0.107435482798645,0.09942737504399174,0.09789731932769956,0.10280383685237524,0.11173416998427989,0.12097987836500661,0.1268121984042317,0.12713186457264852,0.12176279121484877,0.11239517293809988,0.10183769960735996,0.0931798983096494,0.08835384035365389,0.08804157350591693,0.0915975179109825,0.0974896963001775,0.1038305575479228,0.10917863173643913,0.11261952111878333,0.11379465232689669,0.1126833373840713,0.10923370852989357,0.10365820430107062,0.09622073765067463,0.08750426213878028,0.07856002036116952,0.07048933217470496,0.06542883870945716,0.06460295190757705,0.06825909579403884,0.07536380306100035,0.0835556199388058,0.09021771331641326,0.09302116712392595,0.09098947888882199,0.08508989388950146,0.0779543523435725,0.07363814664300741,0.07560437770143465,0.08538816130915877,0.10159308373488285,0.11968928049167021,0.133861753031374,0.1384617198410043,0.13050849675793189,0.11134410578611416,0.08668305912564647,0.06578359944338544,0.05792200799925594,0.0691299136799566,0.09938260651849525,0.14138806230935014,0.18235717068857085,0.20698710627837433,0.2023024134612462,0.16210207955376846,0.08952337705587353,-0.0025513230724392368,-0.09494017456478263,-0.16707264040225858,-0.20264016764680032,-0.1942364624657936,-0.14484392623309394,-0.06712851361664465,0.02057780906800169,0.09958439277752582,0.15574302325527142,0.18324776089737987,0.18476803532352742,0.1695918357953611,0.14984546809338423,0.13615652760755698,0.1349338741745533,0.14655579583254605,0.16632011108879183,0.18682736130627173,0.20077379044920798,0.20399972125907476,0.19616902059782082,0.18057749859610128,0.16259025179830724,0.14752861643831935,0.1390357249391715,0.1379843220320626,0.14273683707589016,0.15019265830824938,0.1571280594543083,0.1615136046333092,0.1628088980447373,0.16183138534039548,0.16002370790367093,0.15852804552010338,0.15776805712143727,0.15706477235569619,0.15511939089550858,0.15069405553738086,0.14319432867995407,0.13320071029633176,0.12203892167312269,0.11137757350624337,0.10259527118058923,0.09624839130914917,0.09214876700360124,0.08939700954051866,0.08704436420352558,0.08467561063011853,0.08263856754102379,0.08224197365275406,0.08480333870833115,0.09108022518004942,0.10067611440063813,0.11195441352588917,0.12199718641047899,0.12796954107768818,0.12796455902777631,0.12184941772988937,0.11153294240009072,0.10076300559441133,0.09380738336430726,0.094134598101475,0.10311136612259622,0.11918835456792187,0.13832717413589665,0.1546389751850215,0.16218098212037377
0.581037661859722,0.5682576673513479,0.4947475626276747,0.3799217278431599,0.25116500344118436,0.13615172080104598,0.05549235882032966,0.018214729119270866,0.02067051839618993,0.04939644163306867,0.0864812462908987,0.1154879947558309,0.12637010887383174,0.11734976481571276,0.09403594107688584,0.06621006352968402,0.043612479841539,0.03263315953373421,0.03430503122606193,0.04462360819571764,0.05655228105131207,0.06275794939781663,0.058393450734736306,0.04234937927135576,0.017270073389105783,-0.011717761466985157,-0.03896695757249614,-0.059876805818166956,-0.07212410289035624,-0.07577082330479355,-0.07261324153501118,-0.06519558235386064,-0.05557773834983237,-0.04490034032430036,-0.033285735948919405,-0.02022846162515434,-0.005264342665416174,0.011772635820497491,0.030324296893353985,0.04922354035823286,0.06698910631151823,0.0819771382740547,0.09335755532676447,0.10075532751107835,0.10432869944376853,0.10459471082455499,0.10231192523445755,0.0981196971510069,0.09268388693913873,0.08670305655047697,0.08096433858173153,0.0759156003282509,0.07301743511822831,0.07276526926129692,0.07509484009938536,0.0793069799854105,0.08396040426523194,0.08782463987279822,0.08967013157817903,0.08892402631242859,0.08596719503958132,0.08192931057600816,0.07888600882893308,0.07862942280543085,0.08206483759563478,0.08867357826026627,0.09631222256625736,0.10225412890258877,0.10377315873991574,0.09941914709248614,0.08982926342391291,0.0776652803204643,0.06728015234385638,0.06281242716591533,0.06660933840705204,0.07799263047066236,0.09293897041965467,0.10553639629645858,0.10984852011828651,0.10244306344458151,0.08426979103362879,0.06104059048450093,0.04213670824976571,0.03761085341779075,0.05456619773912989,0.09403409453584508,0.14943542361311984,0.207893518798413,0.25329140569261316,0.27100969746804165,0.25256025496079826,0.19851300356709195,0.11933991466358497,0.03252223410225523,-0.04203751054147014,-0.08751040589210121,-0.09487901073448028,-0.06471980086877187,-0.0070096485143873385,0.06235613681913922,0.12640505338199304,0.17166590317752028,0.19207716423457877,0.18926474810189847,0.17109449811209726,0.14833736703369255,0.13081447751087913,0.12454408323909587,0.1302217389041683,0.14391136025099746,0.15914707544186535,0.16956723229440515,0.17134212705578508,0.1640586874330661,0.15052577216638982,0.13539810248763223,0.12328553171251193,0.11733788920571059,0.11821705167081686,0.12435433858481565,0.13288917989729743,0.14085446812164126,0.14637000916055085,0.1488625457647045,0.1489717858250449,0.1479339750945635,0.14682390544267315,0.14622364211522837,0.14595173225373578,0.1454567192664318,0.14431136145645562,0.14254530699017676,0.14085421694221803,0.14005092052424845,0.1406008666542302,0.14214581629635942,0.14331734166212753,0.14226843596838146,0.1371961165906158,0.1273535749035229,0.11375207655357282,0.09916014675850557,0.08800063149600697,0.08447676867184234,0.09135053709902037,0.10874156855324968,0.1336634595810174,0.16028755530813438,0.18150395536052752,0.19071420463764138
0.25256025496079826,0.2083265793040829,0.13246163559594865,0.04361984907154233,-0.03613504322616152,-0.08751040589210121,-0.099362728985164,-0.07118353464412656,-0.01280858588441159,0.059122864041537146,0.12640505338199304,0.1743721625451175,0.19605708290757035,0.19288988559161085,0.17313864483870395,0.14833736703369255,0.12847275456331123,0.12069220251636191,0.12625240059485196,0.1413514953257896,0.15914707544186535,0.17245250796734138,0.1763206958271055,0.16941027503870779,0.1541040040777948,0.13539810248763223,0.11905878014719527,0.10981733493679237,0.10993978858364686,0.11872201231795457,0.13288917989729743,0.14765811843566365,0.1584320612250604,0.16207775197085855,0.15791723401999355,0.1479339750945635,0.13609644233429685,0.127205356242829,0.1251337170027917,0.13138505210714663,0.14431136145645565,0.15935460745406413,0.17051266926063463,0.17239162669113944,0.16239918022288571,0.1421458162963594,0.11737283964318568,0.09636694265773527,0.08695480732926324,0.09331809426386935,0.11375207655357285,0.1402358211180053,0.1613925029844887,0.16585488473201998,0.1474081498827033,0.10874156855324965,0.062419856236473635,0.02843259704621793,0.028529171663261958,0.07890755621575897,0.18369345279594948,0.33136541257107877,0.49636494264191056,0.6443408419579627,0.7411837552648848,0.7624297550979668,0.7001470413321572,0.5659284884962156,0.387401877356094,0.20097911720965486,0.04219113018631833,-0.0634668419542514,-0.10564515636634908,-0.09067218453967495,-0.03758151706396654,0.028830378179640553,0.08557021930353434,0.11802701766609808,0.12222181977674927,0.10403491146407816,0.07535331629871102,0.0488104078891933,0.033768463455996454,0.03327659229034942,0.04426263184141604,0.05969572287033718,0.07161266039231616,0.07473326336361968,0.06755093333653345,0.05258947702919977,0.0350158222822061,0.020308493839639535,0.012951048798920428,0.014572486743958698,0.024063125169256936,0.03841214030017874,0.053792726534440984,0.06748602910372585,0.07791430440499865,0.08492781971407254,0.08935460561469781,0.09213766729551183,0.09432658428325506,0.09622140544681625,0.09760422647975747,0.09803519755883308,0.0971414781143517,0.0950599275857088,0.09218779413069794,0.0891514985964603,0.08659977267981074,0.08492396093716761,0.08452658291969949,0.08535638647675736,0.08717187406727994,0.0896535767705714,0.09208146974560419,0.09485743736927799,0.09752686026237832,0.09955967487408642,0.10049922972815485,0.10007765109412281,0.09837528194955829,0.09570242189883604,0.09255659509051424,0.08950349550574502,0.08705008238052843,0.08563446342007681,0.08554282092773514,0.08697197529414885,0.0900703958930347,0.09490277892876697,0.10154441854953195,0.109789431570334,0.11913596457508394,0.1287736453311785,0.1376530116967617,0.14482124839310465,0.14955583811106177,0.1516898101781438,0.1517510640885619,0.15086248330362978,0.150488260886334,0.1518487643956168,0.1554362222905953,0.16065551354325466,0.16575307449662505,0.16821606492875052,0.1653180581266515,0.15495649749296253
0.7624297550979668,0.7223223741152667,0.5959067343697203,0.41298957191344654,0.21469374915260991,0.04219113018631833,-0.07405532172895342,-0.12096771890149535,-0.10445983033051322,-0.045286521816027166,0.02883037817964055,0.09200782019613396,0.1275107758412693,0.13087201212570607,0.10891766262763035,0.07535331629871103,0.044795424847756025,0.027801281526573907,0.027795355319720712,0.04115171141113123,0.05969572287033718,0.07430746080087301,0.07870277292811492,0.0711601891641918,0.054614757528608955,0.0350158222822061,0.01872159164753913,0.010609257922106931,0.012441195416082235,0.0228671329414226,0.03841214030017873,0.05484378975467157,0.06899421281498211,0.07924624960268252,0.08565148326971722,0.08935460561469781,0.09164565423396297,0.09362394466635358,0.0956045306479086,0.09727150104912642,0.09803519755883308,0.0973339301980397,0.09523975180620803,0.09223949040441118,0.08910569143539891,0.08659977267981074,0.08510506866725598,0.08485402387821284,0.0857206496954448,0.08742132018377972,0.0896535767705714,0.09162076184709605,0.09399919825515618,0.09654419933626258,0.09886776446410248,0.10049922972815485,0.10082712489930984,0.09971115683935483,0.09717044084752634,0.09355145828977683,0.08950349550574502,0.08575253462253984,0.08331537115810426,0.08298520955928755,0.08523114350160682,0.0900703958930347,0.09688329399882366,0.10503156500094919,0.11358283245569632,0.12168620801443791,0.1287736453311785,0.13447387436717417,0.13917260412878074,0.14334580984450698,0.14746370738194398,0.1517510640885619,0.15572911002075798,0.15916119181489424,0.1614501742002991,0.16204824602181137,0.16065551354325466,0.1564334639023492,0.15071354366627984,0.1447130187076002,0.13967090606737165,0.13637263061556243,0.13457066043895968,0.13371141570166406,0.1325909416770833,0.13012638660329723,0.12596305298702898,0.12072157111526798,0.116319827430472,0.1150056726097089,0.11861404140769043,0.12770861592597038,0.14102189152555386,0.15590074611471882,0.1688176067539005,0.17669344605152074,0.1780546740766129,0.17360685602162618,0.1660702252512038,0.15890202690482183,0.15485023292082822,0.15465170246833276,0.15649774818964277,0.1568895188848657,0.15202666110801713,0.13993408336907354,0.12200132947826328,0.10318431778555123,0.09079584198041542,0.09157691255694186,0.10872740382501464,0.1397589015611267,0.1762927318164444,0.20651974997090478,0.21920955003337123,0.20865926183391909,0.17837564804736417,0.1418769725330878,0.1202040498769585,0.13566520305457383,0.2045072305079049,0.3303166224006208,0.5005203044709027,0.6879153157334654,0.8561958140216853,0.9692109787802733,1.0006505165814363,0.94128317957808,0.8019685762674386,0.610459164700512,0.4041458854031581,0.22028356875273014,0.08668383386650569,0.01593005012580755,0.0036998441140583998,0.03232074619768566,0.07751523048126341,0.11605996708012414,0.13233238761440597,0.1211505258002727,0.08740296263080156,0.04259244695101955,-0.0001275638172644417,-0.030257761956084872,-0.043090315057671524,-0.04002031624098633
1.0006505165814363,0.9802814590268412,0.8541199807067723,0.6543696529283709,0.42728483766757785,0.22028356875273014,0.06948217931458595,-0.008202033217983408,-0.0171911800701435,0.021202523505258374,0.0775152304812634,0.12395376285013968,0.1426476723537489,0.129044887196006,0.09076383047951556,0.042592446951019554,-0.0002476897912583742,-0.027339730272762312,-0.03641603532148848,-0.03291489190128376,-0.026874417326106244,-0.02894907564510234,-0.045323173472044495,-0.076510017463482,-0.11741851245124664,-0.15961342185535873,-0.19455021874643644,-0.21613959238105307,-0.2224249613360624,-0.2154045796414033,-0.1995746760214555,-0.18007354187527252,-0.16038675120320176,-0.1418695786023955,-0.12384268369165301,-0.10458565338701001,-0.0827548268881568,-0.05774337449406683,-0.030352573781387747,-0.002305799861010208,0.024487257239888028,0.04841732805929329,0.06908449792225015,0.086653689541799,0.10141155995915703,0.11318408798122655,0.12090484952896131,0.12348265840743979,0.1201282749385197,0.11132109288857904,0.09932003713795336,0.08725358283739622,0.0807020250271989,0.08311914866091222,0.0953990146411593,0.11508385606612036,0.13635617409099612,0.15258386770343346,0.15768488895358637,0.14895595050121047,0.12879331127802174,0.104629218493789,0.08787088852190644,0.09002411948674081,0.11894840950297973,0.17558746572722223,0.2523927050474836,0.33488187293545246,0.4047515498583412,0.4449619314560116,0.44469191391334845,0.4025991527159546,0.3278216697440198,0.2374429868256868,0.15188239499229747,0.08931547235194429,0.060821690827395185,0.06794009023084135,0.10310133803358747,0.15253896835591238,0.20082205196419217,0.23541434069833353,0.24992275425313115,0.24527201563631246,0.22819399666661433,0.2081503160564322,0.1935864906933179,0.18969099373020146,0.19689298943977765,0.21146516465603712,0.22742334777144357,0.23842477137815407,0.24140700134177784,0.2363267144370768,0.22610176458393577,0.21518443750223804,0.2075628936719443,0.20582861478125933,0.2099702459479443,0.2178767620735959,0.22640878595503605,0.2325361908506374,0.23486424996472935,0.2334513455865181,0.22957598832475004,0.22488265962935097,0.22042552090315723,0.21636651548424604,0.21173836093118406,0.20515633446940543,0.1956652834005477,0.1833468819934859,0.1697443306626952,0.1570949773673978,0.14759595458282138,0.14250457686314852,0.1415093975642259,0.14317176692439507,0.14520056442007934,0.14570112731991333,0.14413749632205583,0.1414660597008107,0.14054185307572267,0.14379003102421029,0.1522403386597571,0.16457709947839855,0.17708306622818887,0.18495319684479958,0.1840908724640833,0.1734243229089173,0.1564372410604328,0.14110024651669054,0.1384781338744042,0.15892616157629968,0.20846361674922054,0.28571792492974674,0.3806959083998448,0.4766606363557548,0.5534763774536378,0.5931082491268628,0.5847746290409738,0.528180643803102,0.4343796558555526,0.32242967047014,0.21448066931534948,0.12982717411424596,0.07982427620290249,0.06580168502935431,0.07914155456543612,0.10494170097183086
0.44469191391334845,0.4232758075239179,0.35578322004542906,0.26132298516261626,0.1646902324901048,0.08931547235194429,0.05076268422577595,0.05342495717259965,0.09008247317867536,0.14528953124675695,0.20082205196419217,0.24125625694329914,0.2585468904147503,0.25315456183680224,0.23265256304248222,0.2081503160564322,0.1897898546691868,0.18407817778684377,0.19176535891232796,0.2085711651213014,0.22742334777144357,0.24084582449602568,0.24497134617995947,0.2395658075381139,0.22791833301833547,0.21518443750223806,0.20613283254361425,0.2037222131119741,0.20805675492199407,0.21680497929566778,0.22640878595503605,0.2334604799240825,0.2361923355831925,0.2346260309315099,0.23021530566657358,0.22488265962935097,0.21989294655125885,0.21553984374949883,0.21093506567073717,0.20466704266118033,0.1956652834005477,0.1838549205909563,0.17053699958095833,0.15787229717481138,0.14807532651001248,0.14250457686314852,0.14109507788926148,0.14242006049516745,0.1443607446938749,0.1451231699194571,0.14413749632205583,0.14216750410604426,0.14179311643583928,0.1451664993769902,0.15317433248910764,0.16457709947839855,0.17588831821501685,0.18282093389246673,0.18174222361273878,0.1718273861482667,0.1564372410604328,0.14291507810074233,0.14167210670138877,0.16239969899450982,0.2107986242151852,0.28571792492974674,0.37785096888613107,0.47162032098253387,0.5479490207467855,0.5893545625116335,0.5847746290409738,0.5326747533417023,0.44243062413789813,0.3313904709956666,0.22068513541012816,0.12982717411424596,0.0717347395045549,0.05065012588772734,0.06130693205779639,0.09167501820357017,0.12708577025159368,0.1543925292493476,0.1660005643104379,0.16038731329193154,0.14158011837344203,0.11678180436131332,0.09315736437967045,0.07607054074631485,0.06695101337893243,0.06376276024757975,0.0624127466415314,0.05843637341287533,0.04953606586959358,0.035612817593311134,0.018888360238069387,0.002926975433749793,-0.008608605069541714,-0.01337777317700255,-0.010907988092411476,-0.002387519682290163,0.010083572825952253,0.024243459212980906,0.038947443674382735,0.053757733684425074,0.06881201711708677,0.08420496425459993,0.09932814856651248,0.11297829869873244,0.12321701305768548,0.12822774829921013,0.12713432960695092,0.12046490033727714,0.11044975526380417,0.09999925222251911,0.09185275032170409,0.0876004925317343,0.08698786075824912,0.08862587619547836,0.09007778201379371,0.08933656854043004,0.08590879541019121,0.08094984412181692,0.07794508579080532,0.07993288640773034,0.08852284542529641,0.10276734539902918,0.11890554951887605,0.13162271596617872,0.13569150754348122,0.12838568505341202,0.1111771539501068,0.0899517432765351,0.07376217649164332,0.0715179346468875,0.08857339818564994,0.12391803742440938,0.16918744925102167,0.21046194528814477,0.23180233342824164,0.22040096388772162,0.17121308748739514,0.08951678356051153,-0.009459513624287985,-0.10435016569596817,-0.17340643817999551,-0.20071231775845844,-0.18085469934592208,-0.12053913285499498,-0.03663608650771802,0.048750815603346084
0.5847746290409738,0.5687062083900396,0.49132233696708877,0.373252351138959,0.24318135990083137,0.12982717411424596,0.05427294901020039,0.025351224964659733,0.03852266381317983,0.07893501018813935,0.12708577025159365,0.16504287349834126,0.18168873379978365,0.17469251458285448,0.14965136627079126,0.11678180436131332,0.08653201708021216,0.06623116414750951,0.05792068185809831,0.058642433604582614,0.062412746641531396,0.06283779429530535,0.05601959651204884,0.04150755527457211,0.022195596062976965,0.0029269754337497966,-0.011246195897444848,-0.017252490404635966,-0.014417961744850669,-0.004347684870604086,0.01008357282595225,0.0259043040818488,0.04133116401327049,0.05586340281177479,0.06995633039618906,0.08420496425459993,0.09840425369597326,0.11157783430698989,0.12189089641785741,0.12744180190507548,0.12713432960695092,0.12116028055554118,0.11148400091079343,0.10096029654050775,0.09241184412524213,0.0876004925317343,0.08647788954748169,0.08768538328384207,0.08901071831820893,0.0885914362431215,0.08590879541019121,0.08175613982892352,0.07937406590144662,0.0814947352274226,0.08957586891228568,0.10276734539902918,0.1175179117978085,0.129145473157025,0.1329619561059345,0.12652906635071728,0.1111771539501068,0.09206305776138962,0.07747973624311057,0.07556304643634157,0.09129423028058097,0.12391803742440938,0.16584202834831518,0.20452376178250545,0.22527795304563822,0.21596168326157703,0.17121308748739514,0.09484502220714333,0.00010343646843300009,-0.09368583973653416,-0.16600713453804042,-0.20071231775845844,-0.19054046323144366,-0.138732408213375,-0.05812611897710485,0.03269395663625152,0.11462013350516302,0.17292689197947686,0.20102651405974237,0.2009584001355024,0.18167024260870587,0.15541398449918914,0.1331430958636403,0.12272391145539074,0.12614307309475836,0.1402230427914653,0.15855875339387265,0.17398716738148606,0.18161866768282128,0.17968264924348065,0.16986030565003188,0.1562781248659765,0.14368420825952866,0.13624078605511508,0.1358615496881706,0.14197270040825322,0.1519526773228871,0.16199099233277228,0.1688481914027221,0.1704208430751459,0.16647242265286666,0.15860707740769805,0.14961573199865583,0.14269509416210174,0.14011086480311966,0.14247103181659418,0.14842451611863888,0.15495445300225388,0.15854620672939995,0.15618915177323617,0.14670788632000345,0.13147465440048148,0.11419747207316414,0.1000830580800277,0.09376905012286295,0.09760138826534319,0.1103966311240352,0.1272822047874597,0.14134898344597707,0.14563729926671026,0.13611669871484933,0.11390237916900181,0.0860452189460331,0.06381178206008037,0.06005379581177163,0.08488602460447682,0.14186096595636877,0.22572304637790458,0.322962745452,0.4144663221483787,0.48044955090535957,0.5057763180376154,0.4840870999229288,0.4199219413631136,0.32718935182104175,0.22559872358521652,0.13548946791974711,0.07263921046237652,0.044974357804847404,0.050987914783845435,0.08130072500334194,0.12202807873834132,0.15885875493497692,0.18105309213106507,0.18328410309719392,0.16617512570259868
0.813090130401132,0.7668249035335762,0.6288481912967185,0.43223015741062604,0.22182534261805884,0.04187329986628279,-0.07567899745833832,-0.11826699433527313,-0.0940954645201062,-0.027221185641983482,0.0513732073210324,0.11355768594973974,0.14202667471360764,0.13344250150623216,0.09699432260389837,0.049164267496211014,0.006871673390136869,-0.0180729362110152,-0.02228964560665692,-0.010498975658811905,0.007532311676980469,0.021253037037188317,0.023559836950095735,0.012759330229868861,-0.00748067779124586,-0.030150535543517886,-0.04792741611441532,-0.0555116033303203,-0.05132220595365043,-0.03739133007846144,-0.018071785558401655,0.0017108334303533024,0.0184738425215846,0.030810350830364513,0.03938824332512085,0.04612902018875339,0.05264858554396025,0.06065405420296161,0.07049531928925917,0.08146918118012536,0.09223178788583566,0.1012779565746834,0.10760618121264297,0.11082234020474106,0.11120017795726407,0.10953050490451144,0.1067517170553049,0.10407110637641942,0.10241396128330996,0.10226218678014538,0.10349619888721533,0.10482467351207776,0.10603952140354318,0.10599223470869862,0.10398781307628908,0.10026404143126029,0.09609062977347707,0.0934866460031309,0.09433554172881005,0.09951673140762755,0.10825609384673121,0.11805049227988429,0.1254621741934426,0.12726156679108078,0.12189514448700044,0.11046650511726973,0.0967531473394174,0.08622266440792786,0.08395807911044645,0.09255116373659884,0.11059293587087124,0.13252206591970012,0.15014259587693013,0.15543829012950125,0.14385882416015047,0.11685904589779474,0.08264339800184319,0.054486380547736996,0.047093980552258996,0.07179444752323849,0.13221352549924803,0.22192846401567337,0.3250186368991967,0.419700960366746,0.48397812951105007,0.5017330510626739,0.4673786076116279,0.38774588959935113,0.2803041395839138,0.1685723700347187,0.07590505691936847,0.019483262434687943,0.006490076712387098,0.03285990238607854,0.08544112356460022,0.14632464797080338,0.19792664552807115,0.2276160196129462,0.2299578313467322,0.20700625208696433,0.16645239079872873,0.11852658617300857,0.07304567717468338,0.03680748529223543,0.0126905622245457,0.0,0.0,0.0,0.0,0.0,0.0,0.0,0.0,0.0,0.0,0.0,0.0,0.0,0.0,0.0,0.0,0.0,0.0,0.0,0.0,0.0,0.0,0.0,0.0,0.0,0.0,0.0,0.0,0.0,0.0,0.0,0.0,0.0,0.0,0.0,0.0,0.0,0.0,0.0,0.0,0.0,0.0,0.0,0.0,0.0
0.5017330510626739,0.47837546270047887,0.40109282246899663,0.2901805939631667,0.1729049685090199,0.07590505691936847,0.017980668971364494,0.00611488826560961,0.03450801638174633,0.08774212649902732,0.14632464797080336,0.1925964815357433,0.21600028866189902,0.21469267389150498,0.19466497175407757,0.16645239079872873,0.14043716331388362,0.12467138289427274,0.12184304881084165,0.12962649178795313,0.14242037723313755,0.1530058271897859,0.15752486897995732,0.15478374672921588,0.1466269715439533,0.1366465506483762,0.12832388520737967,0.12385709149937497,0.12333924550706632,0.125190997026613,0.12723620055952814,0.12788761041877714,0.12705640640851912,0.1261065024763737,0.12715840578505658,0.13197014113468297,0.1409307617134769,0.15267216385231547,0.16442457896764728,0.17303984561474026,0.1762252846092007,0.17354805438185014,0.16638100563790098,0.15748360632301045,0.14979230240144828,0.1452122322944689,0.14406582051440536,0.14469487448710153,0.1447604791653173,0.14250329267537448,0.13791201888792984,0.1329877365819899,0.13163923511916506,0.13713746628528312,0.15075453214820972,0.17064618659679875,0.1919739008562694,0.20871853797680526,0.2162496291296377,0.2143031344922468,0.20880204342105135,0.21148254435701846,0.23738834267597247,0.2997304541708935,0.4046752746323627,0.5472202703254297,0.7098446579529825,0.8653081011086686,0.9821324050136311,1.0326536576055518,1.0006505165814363,0.8862845174483194,0.707135417528512,0.49394242734176314,0.28324817046244,0.10845429067705703,-0.008083040536329932,-0.05931287274799685,-0.053934559126408765,-0.012164124264743352,0.041069623122111265,0.08334202295653978,0.10056977909435177,0.08911778060848856,0.05488008162733568,0.009553357409726185,-0.034316693851170366,-0.06740386856022208,-0.08639998450165282,-0.09393796302919583,-0.09656684120217893,-0.10173936223528604,-0.11449336184575648,-0.13606588022894714,-0.16347934672657632,-0.1907599619000869,-0.21111450216253058,-0.21882938004817848,-0.21120816886823368,-0.18896863055871888,-0.1557446311725366,-0.11695813241906915,-0.07811757695845813,-0.04395082048195528,-0.017519734840715444,0.0,0.0,0.0,0.0,0.0,0.0,0.0,0.0,0.0,0.0,0.0,0.0,0.0,0.0,0.0,0.0,0.0,0.0,0.0,0.0,0.0,0.0,0.0,0.0,0.0,0.0,0.0,0.0,0.0,0.0,0.0,0.0,0.0,0.0,0.0,0.0,0.0,0.0,0.0,0.0,0.0,0.0,0.0,0.0,0.0
1.0006505165814363,0.9576186774028336,0.8039078649865092,0.5767057091149586,0.32763309765392723,0.10845429067705704,-0.042534413951947986,-0.10897752112478222,-0.09839122794626952,-0.03684163319516357,0.04106962312211125,0.10332822050012623,0.1296465022564221,0.11522919534794254,0.0693376564748952,0.009553357409726201,-0.04582761718428446,-0.08391581416386946,-0.10092050891629904,-0.10174325178131086,-0.09656684120217894,-0.09620982717133003,-0.10736927766227276,-0.13075128268545722,-0.16132222424791817,-0.19075996190008687,-0.21096119780176192,-0.21654386431086214,-0.20663117323964023,-0.18447229636772006,-0.15574463117253662,-0.12643374678255367,-0.10048167911069583,-0.07919964852107336,-0.06145405358489347,-0.044813302694296515,-0.027130034667661798,-0.007183478938176151,0.014569595636457947,0.03640473074585983,0.05612583351902543,0.07179076896925521,0.08275476594677202,0.08944870532865518,0.09312250981612305,0.09525574553816679,0.09687530358495818,0.09863056570961656,0.1005281702668656,0.1022608247440249,0.10353597118570389,0.10370888444450745,0.10406699653859415,0.10490914194738672,0.10637052259354628,0.10834369212690348,0.11042437841008344,0.11223228667643055,0.113326302945327,0.1135396989183011,0.11316325271746858,0.11296211590429839,0.11410401455559845,0.11773114002088149,0.1246007847274815,0.13474321954059748,0.147296198592061,0.16062438270681093,0.172653664405518,0.1814066697613895,0.18554120977219504,0.18477999006864534,0.17981594403172393,0.1723378505780747,0.1644570918617015,0.15811959423286098,0.15470385643131684,0.15438358689144802,0.15666378218464533,0.16049260172862934,0.16467596683416127,0.16835324435820276,0.17092895270599892,0.17248753825578447,0.173441372126737,0.17421065838096597,0.1749681574606209,0.17543487094476035,0.17508797601099613,0.17336860737273802,0.16997197317803492,0.16501419818058896,0.15914318420711082,0.15317679466651773,0.14779823422909846,0.14319769189835044,0.13881330047101367,0.1335659562449535,0.12593411558934553,0.11455838831344317,0.09878312247464756,0.07897283997071698,0.056772127318056795,0.03454003987156565,0.014883655247720288,0.0,0.0,0.0,0.0,0.0,0.0,0.0,0.0,0.0,0.0,0.0,0.0,0.0,0.0,0.0,0.0,0.0,0.0,0.0,0.0,0.0,0.0,0.0,0.0,0.0,0.0,0.0,0.0,0.0,0.0,0.0,0.0,0.0,0.0,0.0,0.0,0.0,0.0,0.0,0.0,0.0,0.0,0.0,0.0,0.0
0.4637143112407996,0.42413200854993816,0.3316453111815541,0.2092062033655861,0.08613496971414039,-0.01010461883447931,-0.06135608912924357,-0.06286729502202293,-0.023533307352815298,0.03805927177344002,0.10005583740638478,0.14400841056452862,0.16002304054372185,0.14835637826837667,0.1178052261360903,0.08156927934858857,0.05220514327440518,0.03776001665517711,0.039692268788237894,0.05349121198603317,0.07122603444956546,0.08484738466585354,0.08927568231207987,0.08371246064776665,0.07136872357882507,0.05773874646052818,0.04820430088195201,0.04623685261350652,0.0522463104381948,0.06384673077512634,0.07705328381932171,0.08781827166420819,0.09357273588140443,0.09375627337322232,0.08968600227281211,0.08375538331361317,0.07831985100462958,0.07509170999761651,0.07457947154793583,0.07626224815776586,0.07907355752106351,0.08190961039478936,0.0842529758546728,0.08613457332466627,0.08798762616107125,0.09029309232633277,0.09317377581143838,0.09642146311954711,0.09939874793957475,0.10130627380623897,0.10148015179910913,0.09933808656545032,0.0955816066844984,0.0908057962144113,0.08581371904328551,0.08142825741301189,0.07830434183319898,0.07676272845389877,0.07675304312299389,0.077876691204908,0.0795030398505726,0.08088713443900193,0.08154671986305115,0.08114913197527075,0.0796885670746553,0.07748634076795338,0.07505712948625154,0.07310908313854485,0.07214685314819314,0.0723960545285398,0.07373071890941442,0.07566136643731941,0.077594876785475,0.07883557508881256,0.07886019639422565,0.07749143049271703,0.07495034424282497,0.07193294997751352,0.06930915195777475,0.06795258349321777,0.06850237507166979,0.07113082266222848,0.0756023859647799,0.08111154933136933,0.08652621844125484,0.09065601201901555,0.09250470107912741,0.09168476570961019,0.08833963685665061,0.08321728311852092,0.07751468567138972,0.0725536845161989,0.06958872704993593,0.0692747632946288,0.07152771804673336,0.07548918391989554,0.0796390743967043,0.082300283985662,0.08182693899785039,0.07711077172826149,0.06789371537463323,0.054825327436462346,0.039533644908237325,0.02402317668797331,0.010315502249771513,0.0,0.0,0.0,0.0,0.0,0.0,0.0,0.0,0.0,0.0,0.0,0.0,0.0,0.0,0.0,0.0,0.0,0.0,0.0,0.0,0.0,0.0,0.0,0.0,0.0,0.0,0.0,0.0,0.0,0.0,0.0,0.0,0.0,0.0,0.0,0.0,0.0,0.0,0.0,0.0,0.0,0.0,0.0,0.0,0.0
0.37390614266560995,0.35385080682865316,0.2927771396923215,0.2062447685327965,0.11510521295080206,0.039707187917745995,-0.0056777129719257115,-0.01570302977742865,0.005141622395173513,0.04495566068146315,0.08864230112013896,0.12220641508968476,0.1375078222429831,0.13305320251343491,0.11349990400951185,0.08714598866253889,0.06270194466692837,0.046384313191942285,0.04045312372653633,0.04328972557549641,0.05080430597155428,0.058413357106077195,0.06284045406737043,0.06296481598067737,0.05966739538626875,0.05487462984221274,0.050343666426700594,0.046844151233962766,0.04395593599381505,0.040608522015306264,0.03598352335139574,0.030288045537578537,0.02501603887968096,0.022455604470051887,0.02468955497360809,0.032506280545327206,0.04474049569543385,0.05842359447541634,0.06973149980878462,0.07542622023978553,0.07419788705369881,0.0673050171496641,0.05827060622477832,0.05152295452846029,0.05061901382413501,0.05670915777308648,0.06789579650806771,0.08004892842366955,0.08852795697427256,0.09049929679072259,0.0867852815435562,0.08215338851707919,0.08512298016104393,0.10414476372747918,0.14462849461303423,0.2060675447673358,0.2807374238252452,0.3547614578275984,0.4112037357008142,0.4346791191294949,0.4159301722740588,0.3548896340083264,0.2614275835774883,0.1528732491204827,0.04965054926315444,-0.030039948405465634,-0.07485382537872236,-0.08262833716766156,-0.060342330279904204,-0.02121915590312719,0.019626629136079418,0.04960820953723509,0.061934092777435945,0.05651504099605659,0.03883665758447094,0.017213496542209394,-0.0004664593735182968,-0.009210023087961079,-0.008207347371726298,-0.00030152057062931854,0.009714291121351751,0.01721398773735546,0.019534824584090563,0.016615962200679672,0.010636238623101504,0.004800608084782557,0.0018774481344255517,0.0031932806747671134,0.008245247164168617,0.015233518002429055,0.02207047322869939,0.027372808862089308,0.031203507131606613,0.034798603830602376,0.039942587731921414,0.047979659139948595,0.05893143959457306,0.07126521809353448,0.08207708828914384,0.08804639410074531,0.08657833690731961,0.07671667437585411,0.059736416315637204,0.03865449971694016,0.017463701372837193,0.0,0.0,0.0,0.0,0.0,0.0,0.0,0.0,0.0,0.0,0.0,0.0,0.0,0.0,0.0,0.0,0.0,0.0,0.0,0.0,0.0,0.0,0.0,0.0,0.0,0.0,0.0,0.0,0.0,0.0,0.0,0.0,0.0,0.0,0.0,0.0,0.0,0.0,0.0,0.0,0.0,0.0,0.0,0.0,0.0
0.4159301722740588,0.38048806079089,0.29612172404217285,0.18257064501589426,0.06562045525466904,-0.030039948405465627,-0.0874052562865325,-0.10091219691324511,-0.07692753441326618,-0.03057811758708684,0.01962662913607941,0.05749247838194744,0.07372135281455686,0.06745014003706624,0.04513051135352321,0.017213496542209397,-0.006021784804527266,-0.01771978906714868,-0.01630182523846116,-0.005083905598521536,0.009714291121351748,0.021606213155601517,0.026406785716167187,0.02330063901431797,0.014680932584964994,0.004800608084782558,-0.0021470083852542124,-0.003366821633666728,0.0015787437557680257,0.011008272855716811,0.02207047322869939,0.031901919036693774,0.038899403078247345,0.04297667688185769,0.04538268033075769,0.047979659139948595,0.05230628848796917,0.059125462471977475,0.06803871038944337,0.07774746182001364,0.08657833690731961,0.09283105984885465,0.09592865672542412,0.09599250293237177,0.0937770456605618,0.09027438936183839,0.08631409565088403,0.08236634076844676,0.07854140718577937,0.07480758919779781,0.07126510749324338,0.06799221829863952,0.06618874523808,0.0665860255060271,0.0695474314071414,0.07477147617355898,0.08120468679478898,0.0871734794950178,0.09093355437659231,0.09125051277671847,0.0879168195450878,0.08193847155232303,0.07531783628317647,0.07033300317565157,0.06869397052322244,0.07082222419267223,0.07558276742621352,0.08068879619829471,0.08357969021870675,0.08258661807803898,0.07783933084602825,0.07149199870641247,0.067093787224786,0.06818045547712277,0.07664750542975923,0.09152438328282099,0.10874858117610059,0.12222155107691846,0.12589918480362525,0.11628172176543536,0.09435451344931237,0.06612642896784963,0.041408343601802684,0.030888493607072767,0.0425244697502091,0.07837119578542384,0.13302051439520776,0.19450555074418366,0.24727252881739573,0.2767477093945904,0.2738694868607997,0.23808050486647442,0.177973005562487,0.10873245155361885,0.04777199177462875,0.00957307755300469,0.0014103588892336802,0.021576237244153293,0.06005641880272807,0.10203360655477457,0.13264582869312982,0.14147059818722799,0.1255208849590569,0.08943765138579655,0.043504053061809746,0.0,0.0,0.0,0.0,0.0,0.0,0.0,0.0,0.0,0.0,0.0,0.0,0.0,0.0,0.0,0.0,0.0,0.0,0.0,0.0,0.0,0.0,0.0,0.0,0.0,0.0,0.0,0.0,0.0,0.0,0.0,0.0,0.0,0.0,0.0,0.0,0.0,0.0,0.0,0.0,0.0,0.0,0.0,0.0,0.0
0.2738694868607997,0.2495029310350116,0.1950575663652349,0.12513002427198236,0.057817049250429,0.009573077553004686,-0.00944502735895768,0.0025464603056597067,0.03882025148453341,0.08688488062424327,0.13264582869312982,0.16443423786929595,0.1766991979094781,0.17041596798436132,0.1519370372999628,0.1301605936335188,0.11268505511589054,0.10492667199403986,0.1076987291496385,0.11797592454310567,0.13054286735207743,0.13934383288578245,0.14165175461339086,0.13717620313112242,0.12818348856242529,0.11823379516783072,0.11051215023589557,0.10678342045526942,0.10674012771439022,0.10844997562120276,0.1093990914674566,0.10765810178349883,0.1028405347384715,0.0961989505069462,0.09010619412251686,0.08706165026236998,0.088678933183603,0.09504262308791583,0.1047259837619251,0.1153885113442707,0.12469612583230619,0.13125830813951586,0.13476499186024551,0.13605421229430498,0.13646107521102274,0.1370719056050864,0.13834115263722344,0.13957376081053105,0.13971661208975186,0.13803977721234698,0.13484192258546382,0.1316829879930292,0.13119670620314527,0.1357144810009858,0.1464070746719722,0.1626272412893624,0.18203943661421434,0.20168836061081474,0.21965738846447055,0.23675653647036612,0.2574121564577913,0.2890750437773234,0.3403763225978741,0.41753439851511287,0.5210745651974708,0.6435006589504988,0.7690254598368196,0.8762294656803308,0.9423825225121835,0.9493375736734829,0.8887667631682378,0.7651493181362066,0.5958281164412004,0.4070868250284889,0.22821488743921334,0.08465188083855531,-0.007807821564083956,-0.04581042792103362,-0.03832064800178808,-0.00291695965341606,0.03974407764629976,0.07161204846570546,0.08174145346785101,0.06775290228568573,0.03494223032511065,-0.006797077769918503,-0.04696519240711526,-0.07775243433123498,-0.09622899738611317,-0.10430951618399804,-0.10715105797387316,-0.11074876174017458,-0.11930969113679256,-0.1340751931076239,-0.15296069248069574,-0.17148105681840464,-0.1844618523628515,-0.18749506552158732,-0.17854201376893178,-0.1582442137632769,-0.1295420248448657,-0.09679882876093059,-0.06439722164902324,-0.03610680618102627,-0.01434592246922836,0.0,0.0,0.0,0.0,0.0,0.0,0.0,0.0,0.0,0.0,0.0,0.0,0.0,0.0,0.0,0.0,0.0,0.0,0.0,0.0,0.0,0.0,0.0,0.0,0.0,0.0,0.0,0.0,0.0,0.0,0.0,0.0,0.0,0.0,0.0,0.0,0.0,0.0,0.0,0.0,0.0,0.0,0.0,0.0,0.0
0.8887667631682378,0.8474293283427786,0.7073822168537118,0.5024840296750996,0.2793967551594884,0.08465188083855532,-0.04767278720226129,-0.10340192334970073,-0.09001755151794283,-0.031715929313868754,0.039744077646299746,0.0951256877099126,0.11617651061013815,0.09892694469090205,0.052374933034612374,-0.006797077769918489,-0.06132438886400359,-0.09876498216023565,-0.11518419611459527,-0.11484118825839029,-0.10715105797387317,-0.10219149113380349,-0.10703928760281568,-0.12329254936213184,-0.14717120270049952,-0.17148105681840461,-0.18865571025408817,-0.1930633649886718,-0.18288225966377314,-0.16013742458362032,-0.12954202484486574,-0.09683844464471254,-0.06650487297226591,-0.04098958692242205,-0.020365830262263483,-0.002902575264853814,0.013691163820001018,0.03171576247828392,0.05221155239892731,0.07469386366007016,0.0972946269202198,0.11717700378624436,0.13186603857703164,0.13974986952422228,0.1408103685684005,0.13681920654979302,0.13082151700143335,0.1267185937106286,0.12769954311415835,0.13513544175543185,0.14784284435490272,0.16155304429969072,0.1722099766854048,0.17508391729918538,0.1677120672262595,0.15139728416149298,0.13141008381040153,0.1158476877349806,0.11281507781943538,0.12741104160772623,0.15922425968733345,0.2013909322526338,0.24187299133179374,0.26651712040763986,0.2633538869660759,0.22663772596721612,0.15931557581196248,0.07299098182897364,-0.014709465913459615,-0.0847129305933175,-0.12163971592484539,-0.11789825325049876,-0.07580094760017272,-0.0063982525044528026,0.07376411714407942,0.14736036000459285,0.20100325220378318,0.2280828998168429,0.23009132038579766,0.21495520533165802,0.1938064561445665,0.1772533763276789,0.17198059319288894,0.17948563867582845,0.19621606628419966,0.21539130203597623,0.22965042876455355,0.2335965562887578,0.22547099320007374,0.2075089409309623,0.18501417481795948,0.16450924797518612,0.15187386403750003,0.15040552481953948,0.1600371192232452,0.17744036396750046,0.1969107929057037,0.21212376823413043,0.21738561836740886,0.2091051394995714,0.1865860880597751,0.15204186929982494,0.11029954920587354,0.06732052819998685,0.02901497744054139,0.0,0.0,0.0,0.0,0.0,0.0,0.0,0.0,0.0,0.0,0.0,0.0,0.0,0.0,0.0,0.0,0.0,0.0,0.0,0.0,0.0,0.0,0.0,0.0,0.0,0.0,0.0,0.0,0.0,0.0,0.0,0.0,0.0,0.0,0.0,0.0,0.0,0.0,0.0,0.0,0.0,0.0,0.0,0.0,0.0
0.39491893182855325,0.3718397035352671,0.3046737679617013,0.21015722416166696,0.11082744135763901,0.02884070350405959,-0.020006586373563985,-0.029531964968927894,-0.004228113084351614,0.043165841370470824,0.0960907214606068,0.13887036002344277,0.16170725037776001,0.16195148587875507,0.14380538583222163,0.11586643390449108,0.08769900990420364,0.06683033941732518,0.056776179399968575,0.05680148215253691,0.06309014083383062,0.07086366064430447,0.07579473492809932,0.0756331529884651,0.07039896549134646,0.06182359434279597,0.052277260515614064,0.04394481520333238,0.03809621114109813,0.03503179376180327,0.034401479670773935,0.03560198126440498,0.03833347669490656,0.04251203239410412,0.04811137479591382,0.054856689995235956,0.06194592708255553,0.06833907881185779,0.072909314498412,0.07494585017016096,0.0745327203153889,0.07256324515919921,0.07075465188007728,0.07088705553058415,0.07418928489609568,0.08082775803713192,0.08966084985368297,0.09892128606727534,0.10667788882684175,0.11175203521476096,0.11439548027354468,0.11621707170313463,0.12096254077142192,0.13237474944035368,0.15344944404624153,0.1852660551028627,0.2261218210891825,0.2713320235218403,0.3136384722475939,0.3444291088165125,0.3554260175243076,0.3404640145816474,0.297235642285018,0.22794906447940985,0.1394332842767416,0.042201320695400175,-0.051355068599141074,-0.12895187977355552,-0.18093812301326634,-0.20193830399330095,-0.19174824718911057,-0.155223234601788,-0.10100767566493717,-0.03981395308667706,0.017836237619535057,0.06363306370399277,0.0928441372005382,0.1049308972769539,0.10292870360437413,0.09227721157279681,0.07918461131303509,0.06899755418562427,0.06507826274065588,0.06820581548270481,0.07684283852993393,0.08797219927926891,0.09821322737219512,0.10503210990418888,0.10735236362506807,0.10582888907261455,0.10251977422488878,0.10009905304119447,0.10107671460771137,0.10677782450995486,0.11692263792923321,0.12960409057865965,0.14168134643806024,0.14970677639934532,0.15061029033490653,0.1425688507570606,0.12550082001399454,0.10107575125754847,0.07257236476325474,0.043877903668736305,0.018743686151461384,0.0,0.0,0.0,0.0,0.0,0.0,0.0,0.0,0.0,0.0,0.0,0.0,0.0,0.0,0.0,0.0,0.0,0.0,0.0,0.0,0.0,0.0,0.0,0.0,0.0,0.0,0.0,0.0,0.0,0.0,0.0,0.0,0.0,0.0,0.0,0.0,0.0,0.0,0.0,0.0,0.0,0.0,0.0,0.0,0.0
0.3554260175243076,0.3624054593254419,0.3269005837282822,0.25328875161235953,0.15303445641502073,0.04220132069540018,-0.06201215334442038,-0.14447139297420716,-0.1950148928077676,-0.2098832318075996,-0.19174824718911057,-0.1485246193422356,-0.09099271732588778,-0.030520820234792245,0.023187572418308593,0.06363306370399277,0.08812179447210967,0.09768514102016305,0.0960230882410688,0.08818800073414496,0.07918461131303509,0.07278372161380392,0.07102433576772536,0.07401423625027716,0.08037370137830285,0.08797219927926891,0.09468457327006112,0.09924412068758999,0.10143350013368342,0.10205397923606901,0.10251977422488878,0.10421829919987667,0.1081237895345656,0.11431816040720781,0.12197376985142946,0.12960409057865965,0.135461837816032,0.13821376816197226,0.13720302233201506,0.13264045001978358,0.12550082001399454,0.1171513765048343,0.10912750172742924,0.10262291528196067,0.09827904401655309,0.09611960735875938,0.09560494745716426,0.09601717950292163,0.09659949204456827,0.09679805552870238,0.09637431003411136,0.09517416139767958,0.09388193382059684,0.09284735248430075,0.09231460223348292,0.09233981161066467,0.09272798955985333,0.09312660010864947,0.09298580579213238,0.09172591041900562,0.0889007726918614,0.08445011073958389,0.07841489188216229,0.07142889424932668,0.06441203627192336,0.0583502214187494,0.05402619652383167,0.051962567802143055,0.05217791286285498,0.05428860197639263,0.05764693504234175,0.061477012342843064,0.06518918422586266,0.06827516637745674,0.07041852135369227,0.07148202041327038,0.07142401920183414,0.0704378594984938,0.06871122233617094,0.066519276424265,0.06423585639652071,0.062255841282186704,0.06112036527267585,0.06113338171787866,0.06234398376478908,0.06448677304015768,0.0669418597302797,0.0691171281359072,0.07031609839720969,0.07009027816178152,0.06841841503633252,0.06568689208408782,0.06281512206059518,0.06066751764240644,0.05985653329359858,0.06048443207394902,0.06197950953424366,0.0633702898006091,0.06331234022947181,0.06057837968121442,0.05446231317373108,0.04500068176122144,0.033208466750881856,0.020628526971929132,0.009038343927072874,0.0,0.0,0.0,0.0,0.0,0.0,0.0,0.0,0.0,0.0,0.0,0.0,0.0,0.0,0.0,0.0,0.0,0.0,0.0,0.0,0.0,0.0,0.0,0.0,0.0,0.0,0.0,0.0,0.0,0.0,0.0,0.0,0.0,0.0,0.0,0.0,0.0,0.0,0.0,0.0,0.0,0.0,0.0,0.0,0.0
0.2518117533103265,0.22040039037733725,0.1593069080820665,0.0838221862756031,0.012572538241574317,-0.03773790813368272,-0.05701378197415376,-0.04387367398106724,-0.005640015141559198,0.04454792159973759,0.09205119151857785,0.12451100800184155,0.13666689238087995,0.1298723200362126,0.11095607615281859,0.08913900595781976,0.07255399798179357,0.06564285925532413,0.06819442979834861,0.0762230003893538,0.08412835537049608,0.08710694466292111,0.08316127326481114,0.073425151720258,0.06129544564372068,0.050648680667645815,0.04395794791729506,0.04144942222327624,0.04110306886203227,0.039913074891716416,0.03558041370166648,0.02779941482661451,0.018813479661651557,0.012400796819903834,0.012171012854819618,0.019716081255597154,0.033494236823632575,0.049205465874957166,0.061352450513107365,0.06565040623911647,0.06115365948048559,0.0510795509117285,0.04194680878480816,0.040907039393623404,0.05247383032484952,0.0758966703236993,0.10440327479319725,0.12719770056434646,0.13333608766966817,0.11660510442828083,0.07937501758331042,0.033559996583093776,-0.0010747950326232217,-0.0033300687317682418,0.04252329726046946,0.14035281057935994,0.2788938359407433,0.432942925151638,0.5692869924327171,0.6555172687310936,0.6692499963300912,0.6047773854406518,0.47524819580295696,0.30901857513429054,0.1419387883996916,0.007576257689034192,-0.0715854608916187,-0.08909501714170268,-0.05488750914157366,0.009407644537733054,0.07804866745527307,0.1290991781198084,0.15042343123020188,0.14155796255131187,0.1119047747572324,0.07595985892802032,0.04755442841831789,0.03529870923932341,0.040307894057571104,0.057024607302981076,0.07624879523731684,0.08902516856815,0.0899798677345966,0.07876182804773173,0.059553179010499044,0.03895837437754453,0.023286565349783017,0.016373624856214963,0.018567032721932653,0.027222945049301686,0.03823957208865472,0.047866541033883846,0.05420267870359266,0.05745950733149285,0.05943935499212826,0.062317413549958574,0.06732766440075269,0.07413551304073679,0.08066674343338143,0.08396534268833902,0.08138924939798793,0.0716729591289764,0.05566335517381193,0.03596438838691873,0.01622065512023169,0.0,0.0,0.0,0.0,0.0,0.0,0.0,0.0,0.0,0.0,0.0,0.0,0.0,0.0,0.0,0.0,0.0,0.0,0.0,0.0,0.0,0.0,0.0,0.0,0.0,0.0,0.0,0.0,0.0,0.0,0.0,0.0,0.0,0.0,0.0,0.0,0.0,0.0,0.0,0.0,0.0,0.0,0.0,0.0,0.0
0.6692499963300912,0.6218933866824966,0.49845248327948183,0.3288912477987325,0.15263246790254154,0.007576257689034195,-0.08004042704967797,-0.10145559618419074,-0.06614603453120285,0.0030245566724534895,0.07804866745527306,0.1345226900685883,0.158556884650006,0.14912898123347013,0.11627854096483714,0.07595985892802032,0.043602955751133037,0.029182824054705916,0.034422717986092165,0.05350257229771733,0.07624879523731684,0.09231337273171766,0.09518859331232639,0.083895672090828,0.06270276550508219,0.03895837437754453,0.020023253303543768,0.0109642891321349,0.012976669627125962,0.023620178027859193,0.038239572088654715,0.051821055996419924,0.06101832966500455,0.06480207899505437,0.06438856852658313,0.062317413549958574,0.06110462619745538,0.06257303719306083,0.0671127065185765,0.0738837672105474,0.08138924939798793,0.08806546392838076,0.09316183319898558,0.09667245929057332,0.09922365131692452,0.1016677240549141,0.10443565648276114,0.1079106579521086,0.11187940148314955,0.1157759231297614,0.11889496458230768,0.12036425743681277,0.12034770028401813,0.11863979103796204,0.11534687116292604,0.11098191294503224,0.1064443294578969,0.10287116501800285,0.1013215193977306,0.10243343689297069,0.10614268020288833,0.11155638738341485,0.11729153085781756,0.12170756181939599,0.12354181285968267,0.12239624131330049,0.11889866748316245,0.11464957762241965,0.1114549262835414,0.11066014733785617,0.11253933767609954,0.11604384693963611,0.1192831881743631,0.12013079574581442,0.11729168446217568,0.11108219352264273,0.10359115537356849,0.09816499912975084,0.09807432133032756,0.10510577616561514,0.11848693088244647,0.13467390147951738,0.1483455061696515,0.15414303169241023,0.1488753144786646,0.13320768918937517,0.11209809341538683,0.09380137506333627,0.08719392058309473,0.09866619904713306,0.1293727213220243,0.17388522447720506,0.22111594394200168,0.25689027902094064,0.2680814359120079,0.24670267620032402,0.19264573750210937,0.11440802599586478,0.026837888482768718,-0.05271378192563697,-0.10909229000913986,-0.13341979817901262,-0.12498673720007802,-0.09119994141655301,-0.04482846074298982,0.0,0.0,0.0,0.0,0.0,0.0,0.0,0.0,0.0,0.0,0.0,0.0,0.0,0.0,0.0,0.0,0.0,0.0,0.0,0.0,0.0,0.0,0.0,0.0,0.0,0.0,0.0,0.0,0.0,0.0,0.0,0.0,0.0,0.0,0.0,0.0,0.0,0.0,0.0,0.0,0.0,0.0,0.0,0.0,0.0
0.24670267620032402,0.1978048131012151,0.11714248790042125,0.024226195470936844,-0.057938490657102035,-0.10909229000913986,-0.11718577567621717,-0.08124207814322357,-0.011306986170531453,0.0747571942540138,0.15641534349165045,0.21599767663749167,0.24320282592323303,0.23716654039509333,0.2058876970750661,0.16326042181788047,0.12474534275763187,0.10267982955007572,0.10298996384004094,0.12375494893653421,0.15614792856817972,0.1875505590621773,0.20534093158435543,0.2013473959626848,0.17468370352965643,0.1324355128297577,0.0878417830408728,0.05589711279195404,0.048406824765959214,0.06937170647811412,0.11266385886753945,0.16304790196162064,0.20054735013161962,0.20723952852649552,0.17428483336538053,0.10682415572001852,0.024666376447632324,-0.0417483786770687,-0.05990436070358355,-0.005480739347697327,0.12864635425454551,0.3276736207115057,0.5568460678617619,0.7691213577470308,0.9173360837949625,0.9670022937349974,0.9058251864557227,0.7474676438954205,0.5275211148601527,0.29365346905370326,0.09264347914648256,-0.041922160137628985,-0.09651334911837346,-0.07973133914122511,-0.016898849038346167,0.05931901872119986,0.11933366426443856,0.1444797432688955,0.13082801430464036,0.08753815333881647,0.03141388202845349,-0.020194262624121277,-0.05511347158836929,-0.06991155268228433,-0.06936596265336911,-0.06319578537492358,-0.06158630114879361,-0.07083853551251405,-0.09167753392634892,-0.1193941815997184,-0.14611631746582568,-0.1640596754679737,-0.16802239856885762,-0.15725928211001264,-0.1351095151434695,-0.10738026810927953,-0.0801808917291999,-0.0576816438185731,-0.04137997062611891,-0.03002443360460359,-0.020587494227319536,-0.009745536228849506,0.005026841789441457,0.02437575634715096,0.047089085680581094,0.070626310884761,0.09193222618764631,0.10853987559493593,0.11895639645488548,0.12306870019419422,0.12207635130053135,0.11804601992527279,0.11358904079230008,0.11088804959494293,0.11125520450351058,0.11476872106423867,0.11969566058917219,0.12465716376426608,0.12669984659503633,0.1230487572735918,0.11201341841125582,0.09356553819492201,0.06965825195181823,0.04357801793297593,0.01920216642900304,0.0,0.0,0.0,0.0,0.0,0.0,0.0,0.0,0.0,0.0,0.0,0.0,0.0,0.0,0.0,0.0,0.0,0.0,0.0,0.0,0.0,0.0,0.0,0.0,0.0,0.0,0.0,0.0,0.0,0.0,0.0,0.0,0.0,0.0,0.0,0.0,0.0,0.0,0.0,0.0,0.0,0.0,0.0,0.0,0.0
0.9670022937349974,0.9213178099434769,0.7683664351737979,0.5452964882857055,0.30313527806617235,0.09264347914648258,-0.0490778440099253,-0.10680757420630603,-0.08893513227312651,-0.0220071556130038,0.05931901872119986,0.12332730543377632,0.1502879715616068,0.13604227655197182,0.09042404037071954,0.03141388202845349,-0.022520787448991133,-0.05852443055828381,-0.07299353073216083,-0.07108055682303764,-0.06319578537492358,-0.060240778656837565,-0.06900274473922037,-0.0901701494105987,-0.11865898821772175,-0.14611631746582568,-0.16444981815248333,-0.16843990835385342,-0.15746635032001322,-0.13510890734380154,-0.10738026810927953,-0.08048591750771802,-0.05846230288192503,-0.042451072093669794,-0.03086925815963275,-0.020587494227319533,-0.008579666658838345,0.0071636730202960875,0.02677652634442059,0.04874603565393752,0.070626310884761,0.08983533322085564,0.10472331838153405,0.11467845192328875,0.12011073738145753,0.12207635130053135,0.12169831573316428,0.1201518081792777,0.11822206396367156,0.11635994178395069,0.11476872106423867,0.112607297653479,0.11119840394687136,0.1106314505738738,0.110915527128973,0.11201341841125582,0.11379784711897288,0.11622671586774629,0.11911006064211503,0.12223742815027089,0.1254384580566761,0.1285892071708656,0.13170640449676776,0.13470433166369764,0.13733490343106025,0.13911837250544237,0.13937562523165384,0.1374942202452561,0.13317100685520133,0.12677047752386342,0.11949319689880836,0.11326878617785728,0.11013834700401492,0.11167847918705248,0.11820200332730653,0.12833538140106748,0.13925218390465274,0.14719215089481882,0.14910157964977921,0.14377589488648018,0.13263472653863795,0.11964531136726776,0.10995485272856982,0.10826872005673148,0.11673196328915561,0.13358537593569725,0.15317194248766408,0.16746722595077257,0.16893135556336988,0.15363482189471428,0.12360323627442986,0.08731540090528242,0.05808842797158019,0.05014857060820366,0.07401429347642503,0.13237871383792005,0.21795089606412194,0.3145276922385004,0.4004278631820808,0.4543046521751604,0.4611159639538864,0.416456903029209,0.328204326832971,0.21418908301926085,0.09744245988404328,0.0,0.0,0.0,0.0,0.0,0.0,0.0,0.0,0.0,0.0,0.0,0.0,0.0,0.0,0.0,0.0,0.0,0.0,0.0,0.0,0.0,0.0,0.0,0.0,0.0,0.0,0.0,0.0,0.0,0.0,0.0,0.0,0.0,0.0,0.0,0.0,0.0,0.0,0.0,0.0,0.0,0.0,0.0,0.0,0.0
0.4611159639538864,0.4395768200262898,0.3685170891897734,0.26666333874349313,0.15917535422970466,0.0706475404338985,0.018350382353909934,0.00880852701572495,0.03663871325688828,0.08745833373055185,0.14296282940951296,0.18615561534631922,0.2070514980087687,0.20375153841424715,0.18188649518461714,0.15161224563885445,0.12369372488092242,0.10587524878825635,0.10101443417479716,0.1070563287635205,0.1186848076160375,0.12971177575274123,0.1355931548267249,0.13456520457242493,0.1277161097693129,0.11795018545075014,0.1084254326975168,0.10144771146348709,0.09775197832304196,0.09676352659019535,0.0973786855874297,0.09877344887075096,0.10104117009117715,0.10494582251795588,0.11129887637494719,0.12015060059458418,0.13023244913673665,0.1392563673117223,0.1445893340680228,0.14443843605721945,0.13884043440194993,0.1299233729970808,0.12146986211143856,0.11738438347849234,0.12004302330372368,0.12904846083438046,0.14097430191006508,0.15073877855964435,0.1536052970956206,0.14766327485855574,0.1355320940936602,0.12417181823150966,0.12424560759010382,0.14540580033639508,0.19291310885859814,0.2646092034701986,0.3498715537529026,0.4314093125244973,0.48919185821658384,0.5060097284136991,0.47270908413612694,0.3913990789554043,0.2759029232479768,0.1482341007309986,0.03310909007061388,-0.04849132651999287,-0.08473950169062049,-0.075318970887846,-0.03106430188462708,0.030001186480204278,0.08825682696870778,0.12798510257922524,0.1414608935755029,0.12976994607381612,0.10124665852138968,0.06782321722047636,0.04070953607662597,0.027190580190830066,0.028715018878783763,0.04151905458486374,0.0587951187094377,0.07348818855532249,0.0809364297571941,0.07987943305154435,0.0723680139958897,0.062434506750908024,0.054213454504028764,0.05062320738642283,0.0523037976629637,0.05794735916363221,0.06524256867977545,0.07196857299968543,0.07713600789424037,0.08086787044819724,0.0841271046258678,0.08792516443302258,0.09246563482502246,0.09698295202811924,0.09955959141784619,0.09791762256354813,0.09033523111609927,0.07635876504999968,0.057404609390557665,0.03616282549780872,0.015997193572362064,0.0,0.0,0.0,0.0,0.0,0.0,0.0,0.0,0.0,0.0,0.0,0.0,0.0,0.0,0.0,0.0,0.0,0.0,0.0,0.0,0.0,0.0,0.0,0.0,0.0,0.0,0.0,0.0,0.0,0.0,0.0,0.0,0.0,0.0,0.0,0.0,0.0,0.0,0.0,0.0,0.0,0.0,0.0,0.0,0.0
0.47270908413612694,0.42476595810464735,0.3211968307516059,0.18704113060680233,0.05398365071240819,-0.04849132651999286,-0.10110328400479118,-0.09911940092606093,-0.05260410369093933,0.01788377324508445,0.08825682696870778,0.13816078817741176,0.15659171813372563,0.14371931663009752,0.10921827626385527,0.06782321722047636,0.03381251170191569,0.016717900411299502,0.018849383563228714,0.0357515464031349,0.0587951187094377,0.07868483461636033,0.08894696003741263,0.08755091548920434,0.07693510368765648,0.062434506750908024,0.04987576361941241,0.04365373077914513,0.0453218661894904,0.05358333840626844,0.06524256867977543,0.07655892940665564,0.08483036655097177,0.08894801784539448,0.08944980938974291,0.08792516443302259,0.08608387935256946,0.08528267824506873,0.08598921519620605,0.08790461365859117,0.09033523111609927,0.0925599240866957,0.09438718116981983,0.09603603327667042,0.09799981399195622,0.1007352357580666,0.10429790429860805,0.10846091091786124,0.11258869245049646,0.11588359390107111,0.11763003779749254,0.11705241545255939,0.1146182307030033,0.11057651462752849,0.10537415929276504,0.09957225588946281,0.09378551951766544,0.08851824130340738,0.08424599146126266,0.08134269089683505,0.08005786876808024,0.0804465391897344,0.08251376245349537,0.08595914440223454,0.09025843934277532,0.0947078684428813,0.098483850566687,0.10091861149329476,0.10149106705671337,0.10004469216990884,0.09687769337882263,0.09268881957000828,0.08854006531777742,0.0854501493849516,0.08416770015686474,0.08495165554666374,0.08745689612021629,0.09095235428609719,0.09441236318563517,0.09691228978774558,0.09793446203090692,0.09749229687330868,0.0962049527513211,0.0948774433813083,0.09421138383941385,0.0944939464522874,0.09540816929833475,0.09630267653620243,0.09628277315464996,0.09472779598888771,0.09167028638520713,0.0878973272683515,0.08495030610845555,0.08441166376351493,0.08736241505608505,0.09382884274863562,0.10246294142582141,0.11089595606723135,0.11605428709735083,0.11510994826732901,0.10635791236108158,0.08976295360303771,0.06731992822641299,0.0423389672690645,0.01872858835104843,0.0,0.0,0.0,0.0,0.0,0.0,0.0,0.0,0.0,0.0,0.0,0.0,0.0,0.0,0.0,0.0,0.0,0.0,0.0,0.0,0.0,0.0,0.0,0.0,0.0,0.0,0.0,0.0,0.0,0.0,0.0,0.0,0.0,0.0,0.0,0.0,0.0,0.0,0.0,0.0,0.0,0.0,0.0,0.0,0.0
0.3310619004880607,0.2899749886027397,0.20969226127752852,0.11015599628796781,0.015763230453972883,-0.05149534698919345,-0.0781308050101572,-0.06212438879914535,-0.012865923467954649,0.052535006745060994,0.11488269908495431,0.15854324669673026,0.1758848517685327,0.16830457283005798,0.14462360528637105,0.11729044763630854,0.09779493251100191,0.09338002003059459,0.10508805641670398,0.12835865895933604,0.15533109090917654,0.17780515150955148,0.19027497152067652,0.19115283234586503,0.1827362065762776,0.16980731180930636,0.15744955649370967,0.14968130284513018,0.14803229938897833,0.1515836313600566,0.1577696719135757,0.16373035375000652,0.16707440331285714,0.16684380557489242,0.16351873628359187,0.15858295697148203,0.1537318738825031,0.1504683227678263,0.14945051905902013,0.15041936776351544,0.15237006139154208,0.15379424306996198,0.15350776503852304,0.15075243300330826,0.14550669354040818,0.13851696529983135,0.1309538625458924,0.12451999763420998,0.12060861861153307,0.1199135007616493,0.12211323938277674,0.12570344239886283,0.12903951541524664,0.13018472019604027,0.12804251898048175,0.12297621263810617,0.11692561562111939,0.11272820832448492,0.1131340595530721,0.11947836997267648,0.13076434690094563,0.14351558550257826,0.15293731787061934,0.15437464148820498,0.14542601648439052,0.1274205862752149,0.10560533076335789,0.08808309427057348,0.08292447801448939,0.095198193460857,0.12448439379581343,0.16390102299058112,0.20165448551131296,0.22384966270630002,0.21893153738122956,0.18170104896248981,0.11556827681411734,0.032645193540537853,-0.04960019091903182,-0.11292848843767206,-0.14344834519270883,-0.13557981535479158,-0.09314572480198406,-0.0282705414951444,0.04267053851508475,0.10403598944234682,0.1452498462985397,0.16355969195206238,0.16342254284862806,0.1540583340280524,0.14551189565069533,0.14473321492522212,0.1534677646245343,0.1676401443058037,0.1794156824820668,0.1804461064883782,0.16511803350358453,0.1330213220516735,0.0889311041888026,0.04140340582146944,0.0,0.0,0.0,0.0,0.0,0.0,0.0,0.0,0.0,0.0,0.0,0.0,0.0,0.0,0.0,0.0,0.0,0.0,0.0,0.0,0.0,0.0,0.0,0.0,0.0,0.0,0.0,0.0,0.0,0.0,0.0,0.0,0.0,0.0,0.0,0.0,0.0,0.0,0.0,0.0,0.0,0.0,0.0,0.0,0.0,0.0,0.0,0.0,0.0,0.0
0.23588645780987647,0.1646498661188981,0.058430578008810394,-0.05816827697842236,-0.15704058746172847,-0.2143523533424847,-0.21720135777082275,-0.1665110509744955,-0.0764520787806152,0.03026113232117379,0.1291788449518637,0.20079807452589465,0.2356904729895279,0.23562317787938472,0.21155516546610825,0.17906666251989867,0.1528538384538279,0.14273833131401734,0.15121100250607034,0.17397187051760554,0.20249373283982247,0.22727487739827587,0.24182763096285834,0.24387391118817403,0.23551395969368974,0.22172869630115605,0.2082559651638194,0.19922452676358535,0.1962532996813597,0.198422657620993,0.20325809536776784,0.20796099330206547,0.2109605550381356,0.21203532938373396,0.21204755572070194,0.21208433540899116,0.21240810123846454,0.21248954237004627,0.21083796157758403,0.20583313489505642,0.19664363698415188,0.1836992423402727,0.1692278325017041,0.15619742059848937,0.14727651499460795,0.14371188954772826,0.14459535908130527,0.14753282518999192,0.14937633113388915,0.14773522643779538,0.14218125888100622,0.13454028930040063,0.12870456521794646,0.12846852065099007,0.13589257291585086,0.1499301147125161,0.16631461818586127,0.17834819803274798,0.17982640640587255,0.1675541361911673,0.1433518827052453,0.11437414308410496,0.09170746891076487,0.08664550980998431,0.1067018365970059,0.15218896100573676,0.21470612253645494,0.27882689400730165,0.3255838167231191,0.338148712635496,0.30722487984624536,0.2344357343327019,0.13307800225033942,0.024544664370754234,-0.06710297495101025,-0.12164723560126765,-0.12827497324329298,-0.08787956532572486,-0.012885114996277865,0.07689631963817636,0.16008849655494864,0.21951482902958655,0.2467669859204573,0.2430360058874483,0.21770090908354175,0.1845291861140323,0.15692251717622907,0.14433630946774334,0.14951285380553692,0.16871282457038764,0.19370169428875467,0.2147078358460732,0.2238650045862856,0.21683783822050334,0.1937466148809574,0.15853494918637245,0.1173103099223243,0.07672913746543174,0.04202097315170823,0.01621232926206251,0.0,0.0,0.0,0.0,0.0,0.0,0.0,0.0,0.0,0.0,0.0,0.0,0.0,0.0,0.0,0.0,0.0,0.0,0.0,0.0,0.0,0.0,0.0,0.0,0.0,0.0,0.0,0.0,0.0,0.0,0.0,0.0,0.0,0.0,0.0,0.0,0.0,0.0,0.0,0.0,0.0,0.0,0.0,0.0,0.0,0.0,0.0,0.0,0.0,0.0
0.30722487984624536,0.2493847405778468,0.15253814321673137,0.04044621844891919,-0.05900885361888691,-0.12164723560126765,-0.1337671529076568,-0.09518430891628285,-0.018789242071639862,0.0740319073006548,0.1600884965549486,0.22093820164155445,0.24789406361293095,0.24300448023999122,0.21696248373236743,0.1845291861140323,0.15915791550585642,0.149178596991512,0.1556999356867301,0.1734706945753525,0.19370169428875467,0.20757865330154252,0.20969478655662815,0.19933350189783539,0.1801932547763946,0.15853494918637245,0.1403752185540517,0.1302266091879978,0.12927335001678975,0.13566702570070713,0.1456684627361451,0.15525112308793115,0.16153581934689118,0.16356837086822595,0.16228246428388815,0.1597879464556435,0.15822392677964625,0.1591629883276744,0.16279165268344692,0.1679270393653704,0.17242767975759832,0.17375631047032586,0.17017358047949904,0.16104507371885457,0.14722314354800595,0.13094778085096268,0.11521110603768267,0.10342536531210189,0.09819356802145798,0.10060344559215659,0.10979299639419829,0.12291020041571708,0.1364393905653022,0.14657537241866428,0.1508029654660464,0.14885400493535725,0.1429617223622925,0.13687198413675697,0.13464426224640116,0.13876074946562392,0.14877862885705997,0.16095811017454392,0.16962876201046725,0.16894387147810316,0.15562250274224584,0.13098724361892025,0.10144134522457675,0.0774851432901133,0.07019357209113132,0.08755110562269552,0.1311136048268504,0.19431104399225052,0.26373190497977567,0.32197271973772157,0.35272498983190576,0.34572836230573206,0.30006100914685196,0.22508270737262956,0.1376268209906758,0.05744326433762767,0.0016616005280267623,-0.01991541922612291,-0.006816575264836217,0.03240833151289599,0.08364598470037247,0.131964082025737,0.16606152282772838,0.1814406721184253,0.18037039648796302,0.1700393707481961,0.15909538780965565,0.15397216555224055,0.15681703777618733,0.1645881473934013,0.17075139664592023,0.16810770144052567,0.15170595886484348,0.1211233213252702,0.08049690277267907,0.03732295378618637,0.0,0.0,0.0,0.0,0.0,0.0,0.0,0.0,0.0,0.0,0.0,0.0,0.0,0.0,0.0,0.0,0.0,0.0,0.0,0.0,0.0,0.0,0.0,0.0,0.0,0.0,0.0,0.0,0.0,0.0,0.0,0.0,0.0,0.0,0.0,0.0,0.0,0.0,0.0,0.0,0.0,0.0,0.0,0.0,0.0,0.0,0.0,0.0,0.0,0.0
0.34572836230573206,0.3157167020916486,0.24688465385596645,0.15694003215084493,0.06826749211344296,0.0016616005280267626,-0.02936079989521162,-0.021504629629929127,0.018081853617131688,0.07488912737861361,0.131964082025737,0.17494016898175088,0.19613058134475297,0.19559599879783723,0.17993184034049187,0.15909538780965565,0.1425060419220035,0.13620519355659202,0.14118224362338705,0.15387171651780013,0.16810770144052567,0.17761771712239696,0.1785554237515775,0.17043116826421736,0.15595150347051367,0.1396908160821304,0.1261750638659518,0.11855363383322728,0.11753920822942947,0.12155552012364212,0.12761485499621725,0.13243384444988127,0.13394567816082117,0.1316325161649353,0.12656238543038636,0.1207973020610579,0.1166214128360719,0.11548014491722947,0.11771588590566004,0.12249544158023663,0.12816699350457392,0.13274098782897006,0.13464368816342742,0.13291286369584593,0.1273520260677954,0.11844115277294512,0.10702170203646776,0.09449917633611146,0.08242049896754218,0.07243317991942234,0.06613422886187746,0.0646585354646931,0.06905020224129632,0.0790551122310299,0.0932824401723029,0.10931601898717899,0.12412942620233772,0.1347639111904917,0.13910439737944902,0.13653643706477323,0.12823796353395187,0.1168819589175803,0.1061467072814832,0.09928997852550006,0.09819777996767518,0.10269658156906461,0.11044761418163727,0.11798208464870534,0.12157575051408631,0.11885158508214641,0.10988255483073923,0.09739607129284897,0.08638345534199499,0.08207807052779047,0.08815190848478242,0.10504382955325207,0.12911962782198377,0.15345546654458142,0.16922946632267058,0.16840685449494225,0.14633993088192238,0.10351515509364448,0.04621394047774659,-0.015012383871377787,-0.06772155275468414,-0.10068856085483663,-0.10681403975820214,-0.08467109198886354,-0.03906536311266907,0.02039650988757151,0.08176419476079375,0.13354200596329102,0.16743092193632886,0.17950425874561426,0.17058926891651058,0.1453811533640742,0.11073258984808602,0.07401303975394753,0.04121299150280018,0.01609988801064232,0.0,0.0,0.0,0.0,0.0,0.0,0.0,0.0,0.0,0.0,0.0,0.0,0.0,0.0,0.0,0.0,0.0,0.0,0.0,0.0,0.0,0.0,0.0,0.0,0.0,0.0,0.0,0.0,0.0,0.0,0.0,0.0,0.0,0.0,0.0,0.0,0.0,0.0,0.0,0.0,0.0,0.0,0.0,0.0,0.0,0.0,0.0,0.0,0.0,0.0
0.35030578706347,0.4191377207424294,0.4585866796081793,0.4587037540977607,0.4154864953894448,0.3323822733457192,0.22014831214148609,0.09531608516397244,-0.023150407007388442,-0.1176759337243299,-0.1756979987300566,-0.1922024590471071,-0.1702016798243222,-0.1196495885307819,-0.05462090025633006,0.01022431923491179,0.06287881691632598,0.09654447426564577,0.11014734558633837,0.10753498777500711,0.09547606434990692,0.08116246952669758,0.07034727039125063,0.06597464832061503,0.06810204567716052,0.07468871966520153,0.08278234585198763,0.08997164726310557,0.09497432533808597,0.09779995457624921,0.09931622515249539,0.10045848563547373,0.10188950820436331,0.10350916152287949,0.10463298587119012,0.10442081163697446,0.10229742071058363,0.09855526700924791,0.09418058149403692,0.09058341870115415,0.08907452852612688,0.09027762016194403,0.09408892431073305,0.0995394680216848,0.10518111938901714,0.10957945517642832,0.11149585070565875,0.11094844089328748,0.1085458086787904,0.10530259527648152,0.10216528302939198,0.09943150635676566,0.09728721644352359,0.09505874324437369,0.0919681998850024,0.0876445450604388,0.0822939053625607,0.07736227348510996,0.07432184252212029,0.07441964972702429,0.0781324638422552,0.08494028817835061,0.09304695334809956,0.1003002584946382,0.10473170893936941,0.10524148729206768,0.10199924268026206,0.09641046233284546,0.09056699973543857,0.08644787119904945,0.08514067183267932,0.0863714521597629,0.08883221612621385,0.09061087495718614,0.09024295750463478,0.08754849289329615,0.08389829223108348,0.08192360291322368,0.08423711807745302,0.0921698478118499,0.10475342977537774,0.11847348492159288,0.12833391035285416,0.12936651906419933,0.11883494899692408,0.09790337071497181,0.07207182452879564,0.05031203564176684,0.04232573296193225,0.05547172037415545,0.09192221040986209,0.14710873499165059,0.21037073262173867,0.26720132473542313,0.3031677163543933,0.3079724283595757,0.2784158300960765,0.21962703191853017,0.14345380043549075,0.06530980837397764,0.0,0.0,0.0,0.0,0.0,0.0,0.0,0.0,0.0,0.0,0.0,0.0,0.0,0.0,0.0,0.0,0.0,0.0,0.0,0.0,0.0,0.0,0.0,0.0,0.0,0.0,0.0,0.0,0.0,0.0,0.0,0.0,0.0,0.0,0.0,0.0,0.0,0.0,0.0,0.0,0.0,0.0,0.0,0.0,0.0,0.0,0.0,0.0,0.0,0.0
0.3079724283595757,0.27549831835511357,0.20768129615339515,0.12174864416901625,0.03899475145728397,-0.021226660120551317,-0.046923396956346154,-0.03586589959373634,0.004276602024266625,0.059148948136406504,0.11254578668373927,0.1508109702361446,0.16780986792825342,0.16473807278571662,0.14879582909439418,0.12978562043488287,0.11613620607733252,0.11245374782704894,0.11816815846788452,0.12859399790760664,0.1373339418182682,0.13889924495478362,0.13127049821160341,0.11616017302007481,0.09816736354204746,0.08277690496679196,0.07411117738732151,0.07366700406765647,0.07992396619137566,0.08937100936292819,0.09820304793265193,0.10388504146227771,0.1062283640745193,0.10700351191205898,0.10880591691495063,0.11352328321956937,0.12113673078363385,0.12966290842392664,0.13592301996732487,0.1371537509157103,0.13257082871785952,0.12408684268159846,0.11599608855114768,0.11316832245981114,0.11882499152341856,0.1326671230887357,0.15019778794347738,0.16423611209735473,0.16741151464819343,0.1555718728696504,0.1304555681821859,0.10033805781976003,0.07896597533458441,0.08087408708656274,0.1167275535160328,0.1889618335882403,0.28959721366120855,0.40114526257332145,0.5007304460438758,0.5661633501760778,0.5822252188204993,0.5451031812755901,0.46384771045470413,0.35761532387656175,0.25035673143006,0.16413411330435143,0.11316683561537809,0.10076683786493676,0.11915164365627463,0.1529595577706738,0.1846357926832871,0.19991708806289032,0.19207949992743184,0.16286852813297792,0.12107265626906163,0.07889777661322675,0.04758732982957496,0.034006058381709316,0.03868354463054199,0.056364878212368096,0.07831139270561768,0.09543232044224026,0.10142195120440099,0.09429729321072015,0.07670227735972816,0.054659587286696794,0.035356221172933515,0.02506784713068504,0.027123220937811877,0.04126755504393739,0.06399420077976821,0.08963288578616455,0.11216641358685275,0.12638826990352817,0.12912913325817732,0.1197711851795159,0.1000750304302404,0.07383156253348384,0.04559905611485803,0.019829917528227332,0.0,0.0,0.0,0.0,0.0,0.0,0.0,0.0,0.0,0.0,0.0,0.0,0.0,0.0,0.0,0.0,0.0,0.0,0.0,0.0,0.0,0.0,0.0,0.0,0.0,0.0,0.0,0.0,0.0,0.0,0.0,0.0,0.0,0.0,0.0,0.0,0.0,0.0,0.0,0.0,0.0,0.0,0.0,0.0,0.0,0.0,0.0,0.0,0.0,0.0
