0.6685364082823894,0.44278558575559296,-0.08013386575576772,-0.03793331258022825,-0.08600048707643944,-0.08938408631794215,-0.09308716445619789,-0.05212302059237128,-0.10145863767119673,0.09184652357245,-0.11105500549637128,0.221161896413367,0.24120325774077206,0.2400369851759907,0.23868598870659097,0.2386760376967608,0.22653483082039502,0.22028231561793363,0.22294042969531278,0.21653438108240114,0.21458170535365237,0.21260260269919534,0.20461651267459727,0.19963868908276103,0.18568773447953646,0.1852740709261317,0.1714174970859295,0.17112564338921543,0.16641465139774142,0.16629418611367125,0.17077495410970187,0.13487619870655115,0.10959632381640286,0.12493743080595815,0.1404157499366566,0.13354313949520286,0.10732544703214553,0.09026254372492926,0.08685876050720451,0.08662109973955374,0.08205550494082653,0.07466561288058325,0.06895402550292953,0.06642359597183656,0.06707714495511294,0.061919034646377796,0.050951418209734985,0.029677076036010098,0.02509197600567158,0.022200681284829205,0.02700325774420173,0.02150465663454238,0.023702199615154195,0.01859997084928814,0.010697876427651251,0.010494480345236108,0.03298735628575792,0.030187140967062456,0.03208806792403101,0.019194524796686832,0.01400199511369183,0.019509925992629455,0.037218006815072625,0.047630201248474974,0.0642434168430246,0.06306212984702998,0.06958019025086826,0.07629800276149859,0.06071874692457948,0.0513346034809436,0.05414213368716462,0.04364419988006504,0.030335899110637388,0.024712110208874854,0.037267560325274805,0.03800528444684039,0.034420324373646484,0.02800878097520589,0.029264709375618966,0.03968389829887174,0.03976636198091383,0.0445047339370071,0.05539425931628876,0.0514346448537024,0.037120011655488526,0.02144328683276846,0.019395962800744675,0.024973796593696185,0.03517182371815771,0.0439855793596111,0.06040730010476898,0.07693243762606262,0.08455645383338783,0.07427442597445237,0.058076636679183745,0.05245206038348426,0.06189187933179317,0.09088701350824763,0.09593806620446961,0.08603425668823662,0.07316369998906465,0.08731033367760573,0.10296928364271897,0.10513305330383933,0.10878738575468222,0.10942155798524232,0.10852305395272498,0.11507724913672017,0.1185730359630936,0.12199592100577973,0.13282988115163774,0.1375626551434329,-0.16375903809814962,0.12566163791018428,0.1360049354911849,0.152210027706319,0.16077755011142214,0.1677033176506453,0.16698483957210938,0.16911535159373092,0.16809068952284428,0.16840365767227003,0.1625487180931016,0.17751230851694735,0.18929067124663693,0.2008735400920862,0.20475188832761002,0.2189103762024171,0.21784169615126106,0.21502932693392265,0.19396190358100282,-0.10632211336722797,-0.10546041887441394,-0.10489699021197617,0.19980805540657462,-0.10464186755857582,0.19951191500813562,0.21247894903835,0.21622171101966875,0.21226001027641364,0.22010882773677048,0.2157911389738603,0.2173200753456436,0.218712685637827,0.21398493203574043,0.1971516831612855,0.18172267815015786,-0.1202305625533864,0.18511650099705335,0.19197455940938843,0.19280387081094483,0.19062400233150742,0.18845355708150652,0.18181174642118642,0.1782143412512852,0.17467838933156413,0.19371473869267225,0.2083436690141583,0.2080810563882624,0.1809420474628449,0.16593013116567237,0.16755507401547023,0.17532893561995821,0.1907604396197658,0.21385774528480941,0.22213274219228293,0.22908875605549212,0.23922987556782166,0.26305779488301556,0.275080506580601,0.2723000038416547,0.2832103466914541,0.2898139141481742,0.2921079218906754,0.2915878242542823,0.25825417278797574,0.22209357014301334,0.19509507498736942,0.19224601097323696,0.18654146994845577,0.18696808795564934,0.18601500334370677,0.186668233703322,0.18741380337206717,0.18973617879841587,0.19811826481389466,0.23203889482948528,0.26298590443172726,0.2774428462730349,0.28588696169286004,0.3227891084329815,0.41062121299209053,0.5013682647996935,0.5680088283437212,0.6045145894352691,0.6318487729099201,0.5584950015776887,0.34842218486801774,-0.10188950793623062,-0.08313090215217951,-0.10073020168200211,-0.1007241911811334,-0.10112509678552571,-0.04795056498329187,0.03780697831990295,-0.10479037364352412,-0.10681187174137106,0.17872940479088878,0.198476355787279,0.20440329631556384,0.2055341374440676,0.20789239277256308,0.2070027341478911,0.22238379757148788,0.22706286452403535,0.219560795909822,0.21939294548330188,0.177087933797342,0.15864923934477293,0.168592258411323,0.1754390886116851,0.18520317775013345,0.18740053144911442,0.19254185747967542,0.18414254754157736,0.1757107851459926,0.1657569558310061,0.15878931748491681,0.16081498693727936,0.15684465890657176,0.1543835399268611,0.15043823822667537,0.13751552693873775,0.1306167428951046,0.12074753173363822,0.10791101236469593,0.10410720176925577,0.11083776329098947,0.11010789929910546,0.09741944750831,0.0,0.0,0.0,0.0,0.0,0.0,0.0,0.0,0.0,0.0,0.0,0.0,0.0,0.0,0.0,0.0,0.0,0.0,0.0,0.0,0.0,0.0,0.0,0.0,0.0,0.0,0.0,0.0,0.0,0.0,0.0,0.0,0.0,0.0,0.0,0.0,0.0,0.0,0.0,0.0,0.0,0.0,0.0,0.0,0.0,0.0,0.0,0.0,0.0,0.0,0.0,0.0,0.0,0.0,0.0,0.0,0.0,0.0,0.0,0.0
0.5584950015776887,0.34842218486801774,-0.10188950793623062,-0.08313090215217951,-0.10073020168200211,-0.1007241911811334,-0.10112509678552571,-0.04795056498329187,0.03780697831990295,-0.10479037364352412,-0.10681187174137106,0.17872940479088878,0.198476355787279,0.20440329631556384,0.2055341374440676,0.20789239277256308,0.2070027341478911,0.22238379757148788,0.22706286452403535,0.219560795909822,0.21939294548330188,0.177087933797342,0.15864923934477293,0.168592258411323,0.1754390886116851,0.18520317775013345,0.18740053144911442,0.19254185747967542,0.18414254754157736,0.1757107851459926,0.1657569558310061,0.15878931748491681,0.16081498693727936,0.15684465890657176,0.1543835399268611,0.15043823822667537,0.13751552693873775,0.1306167428951046,0.12074753173363822,0.10791101236469593,0.10410720176925577,0.11083776329098947,0.11010789929910546,0.09741944750831,0.07577213372398746,0.051164572106354334,0.056589377023587704,0.05755295934943141,0.05255457698351281,0.04759163869083727,0.038163476381280585,0.03626574899290929,0.040396735112093365,0.04005640564024807,0.03974140675546259,0.031950682545518354,0.025679543377547385,0.01192688715284938,-0.0093103902687832,-0.008041698141294771,0.002233494713432305,-0.006980393825510195,-0.0056911357311413445,0.004600717914199357,0.010397654877787559,0.020697455813833397,0.013004407141538906,-0.0051835536864741375,-0.02186949106151478,-0.026555664663326775,-0.0057428811179331555,0.009079943955737824,-0.0015780576792561183,0.008778460285960214,0.03415592366451855,0.02357008259620107,0.008519341373093245,0.019002298710832886,0.023530313960917978,0.03560528324440131,0.06422992185266098,0.06741738436547069,0.06466770098042757,0.05898399982182249,0.05486877340147646,0.05532453158517631,0.06035413444277205,0.07745860405163033,0.07664646756757207,0.06091899482616668,0.06477051467737938,0.07020598096497828,0.07122752548843761,0.054338490387152064,0.03753530390962259,0.04031381033793318,0.035679346770564876,0.04312736824403031,0.04766033369930447,0.0432786127967308,0.037479526429298714,0.03326111591882876,0.029122172011404542,0.028060382325634844,0.02107578706098887,0.02616266518365308,0.02532268485604004,0.024552387043795434,0.022349747468965973,0.02921012089994263,0.03913218536999462,0.02361915697126249,0.023159691532567334,0.013755754567442753,0.026897641654257613,0.026589631921035417,0.024825877240709546,0.006606017469424807,-0.0070779262412216,-0.014729906208174064,-0.0028557005371044773,0.006047806582566424,0.02097744449970273,0.013437819173262068,0.008922189812237474,0.0014303061897922877,-4.124927150979338e-05,0.010504723247294092,0.01207104841521857,0.010654877446291022,-0.001243888335017803,-0.0011316463579255432,0.0004921941449732325,0.006625520981802421,0.015767156321610326,0.01591807512359572,0.022073552579804784,0.01623565431913927,0.013399465575506815,0.003065299061949378,-0.010269722245469513,-0.011610676614937074,-0.009956670307586304,-0.01130633111820189,-0.000661712793400095,0.008482138226995126,0.010128676996049916,0.011778505690453772,0.0029359231310918856,0.007597986945124691,0.00627079602508361,0.0034554148901244247,0.008151939883527625,0.014363572811149816,0.0130940992670783,-0.003153079246428737,-0.0013830580946659682,0.0019096719404472085,0.006727316453894766,0.007073320588161204,0.008948597657428298,0.00785621152703028,0.006797619949487825,-0.0077223235901204175,-0.01020691871790701,0.005345328122302279,-0.0015534393631233658,-0.011403595153057633,0.010291511610714711,0.018546165648096448,0.02836210926283003,0.02774661295920069,0.012205244061122078,0.005737497954106974,0.02034530718916831,0.029038694752920716,0.022823834617862224,0.02869926098785575,0.027173074440507858,0.022748235673679285,0.007930067711579059,0.024713474796390935,0.03560987204010813,0.022626491425804123,0.032256959106694745,0.040509464979896395,0.04588735354825408,0.05139282994539277,0.05552880669006482,0.0522988761587681,0.06869948305673573,0.08673617881377181,0.08991385908830003,0.08573198947440916,0.08618864917499729,0.11077992736318994,0.13251116276178346,0.1453827683584266,0.14339449458495432,0.1430406808498839,0.15781557413718986,0.15172301126828927,0.1382557349458817,0.13090572925761038,0.13266647293019912,0.12553516199723636,0.11700302050253977,0.11306095708808221,0.1107011690245243,0.12491154099016052,0.12268939692432207,0.1355180084281377,0.1348925246143538,0.13579836106068793,0.13672369389585026,0.14965320979106012,0.15057840637422865,0.17097847887051093,0.20184030101008674,0.23265020390470645,0.2963844535196288,0.3945247103223591,0.689017739543874,0.692443548418468,0.6957166289038738,0.6988085918893024,0.4002503367477972,0.1584318682648167,-0.06867543287719392,-0.17613158100370657,-0.1819644598089349,-0.14767616454191076,-0.08526180886883088,-0.005202789494225445,0.06853040721490328,0.11346747688258994,0.1566274674399863,0.1860369786039511,0.20171932876228543,0.20069753066582746,0.0,0.0,0.0,0.0,0.0,0.0,0.0,0.0,0.0,0.0,0.0,0.0,0.0,0.0,0.0,0.0,0.0,0.0,0.0,0.0,0.0,0.0,0.0,0.0,0.0,0.0,0.0,0.0,0.0,0.0,0.0,0.0,0.0,0.0,0.0,0.0,0.0,0.0,0.0,0.0,0.0,0.0,0.0,0.0,0.0,0.0,0.0,0.0,0.0,0.0,0.0,0.0,0.0,0.0,0.0,0.0,0.0,0.0,0.0,0.0
0.2963844535196288,0.3945247103223591,0.689017739543874,0.692443548418468,0.6957166289038738,0.6988085918893024,0.4002503367477972,0.1584318682648167,-0.06867543287719392,-0.17613158100370657,-0.1819644598089349,-0.14767616454191076,-0.08526180886883088,-0.005202789494225445,0.06853040721490328,0.11346747688258994,0.1566274674399863,0.1860369786039511,0.20171932876228543,0.20069753066582746,0.17249514983859665,0.1771200714406016,0.19209649322417968,0.1889489764371713,0.18719112907806879,0.17484217215374856,0.18191164704441998,0.18142008733010356,0.18087993473138853,0.17430553433411278,0.17520626726289482,0.179094390402262,0.1799815968793706,0.17637774752752955,0.17878930508034285,0.17522653449215275,0.18819162446957977,0.18769681717534895,0.16624872970458704,0.15834429699731345,0.17298493140730486,0.16968155860769984,0.1514351834019933,0.12424533763795702,0.12410455050814452,0.12851690866305837,0.129982755490798,0.13899804450733885,0.13756401252021497,0.1286768295112269,0.10783353901193804,0.08852679388218349,0.07375089373185864,0.06649969553688946,0.060768561162523674,0.05955064633174084,0.04934223793833042,0.05263183054768876,0.05291579113711405,0.05468585168924092,0.044437226895328974,0.04165798799014811,0.028343790871460193,0.0254819640239956,0.024065939692831512,0.013589334987190034,0.006040962577118938,0.004411440829781394,0.013191045633562614,0.008375964024979726,0.004954197962230225,0.017913707523691466,0.014252420783632815,-0.004539006053410299,-0.036969988045006355,-0.0620535686046945,-0.057299591271114635,-0.03470482219269295,-0.019757773590999308,-0.009449593934831363,0.0007301330215393537,0.013793033509230153,0.032750730108693255,0.04111883599675905,0.05540593056937615,0.06062694538157938,0.050794661314960354,0.04541624745897788,0.0594995557516793,0.07056001789900106,0.08460683490376483,0.08965260225628342,0.10370324693339399,0.11776986858029351,0.11686429742180446,0.10699340299789575,0.094163470527049,0.09337837661694062,0.09564652344133531,0.07997834447383508,0.06737505128440326,0.06534026601696628,0.07387883531001951,0.08849621592262331,0.08970061795931217,0.07599606175596024,0.0758798736660507,0.08335618236395452,0.08493029849449947,0.08660305636005587,0.07637861289908232,0.06325632019924483,0.06073421163324982,0.04781718659339902,0.030504219869565,0.03279029987810679,0.04417744481548036,0.0556671966526773,0.04626337466518568,0.03546108839545382,0.03225740198681203,0.027652949564729468,0.024645705775944816,0.027733194728484043,0.023416564589424878,0.029690267106605328,0.028556131520201845,0.03650865631785906,0.053545632220179766,0.05267028833585609,0.04587746692232773,0.039162995981452946,0.03702278640172054,0.004960672379730854,-0.012036247521995837,-0.004973404969139701,-0.0008475936087049939,-0.010158569627839521,-0.004414127815389896,0.008886396679073255,0.01624533714398199,0.017662171970099474,0.008637235143398486,0.022162965489865558,0.022246123251704157,0.005886487829059081,-0.014919395348191629,-0.01467782074829458,-0.014383985004021552,-0.009536999012579164,-0.00013367037070357985,0.009331036161670383,0.01136279307122313,0.019462854353943695,0.017138662671156834,0.014891942438544591,0.014226206022265925,0.02114395450687244,0.02515105285950133,0.024751386683726975,0.028946529910104022,0.030241367725869373,0.042136268750099584,0.04063925724415916,0.04075002766497727,0.031973379930602924,0.02480953837343588,0.019260753376731818,0.03182571626243898,0.04451020434993495,0.043818899008120894,0.03425251176729559,0.04580622640585689,0.07248255001480512,0.09178719566762435,0.10672020536764258,0.11128303582599995,0.11747286286522901,0.12528880408440368,0.13772876517035348,0.12929595857122364,0.13148104168066144,0.13978151998768268,0.14969424157609476,0.15371598017003527,0.13834401011829417,0.12756703034063419,0.12287773214624333,0.12876754446122793,0.13023134138457923,0.11226335317756625,0.10934685390390421,0.10647486135138935,0.1171339133682123,0.12781563635962792,0.13550888514356876,0.1491993772680652,0.14937808594205793,0.16602493333675444,0.18562815067791924,0.2051729531488946,0.24263925595675875,0.6099447427466731,0.6142151075241069,0.618353153699416,0.5143566676324467,0.5421478963573831,0.503737699122868,0.31960955479482295,0.07521007341451753,-0.10352416442160915,-0.1836375931816516,-0.1936520093055168,-0.1380767600452005,-0.04989686250647838,0.02741796941483368,0.09239401835383625,0.13155992804750333,0.15693857160531122,0.18505122751520076,0.20542401050362574,0.21058148549297234,0.21104344299799335,0.21732862062601416,0.22645751123283078,0.23095045785303114,0.2263260466857168,0.19760389509545553,0.17029405741952505,0.1699055999757277,0.18595423218673995,0.194457624412924,0.19842689631210986,0.18287594254158654,0.17180954650106958,0.18173313858038742,0.18566034606662238,0.183598266649793,0.17555306971818746,0.16153000666876066,0.0,0.0,0.0,0.0,0.0,0.0,0.0,0.0,0.0,0.0,0.0,0.0,0.0,0.0,0.0,0.0,0.0,0.0,0.0,0.0,0.0,0.0,0.0,0.0,0.0,0.0,0.0,0.0,0.0,0.0,0.0,0.0,0.0,0.0,0.0,0.0,0.0,0.0,0.0,0.0,0.0,0.0,0.0,0.0,0.0,0.0,0.0,0.0,0.0,0.0,0.0,0.0,0.0,0.0,0.0,0.0,0.0,0.0,0.0,0.0
0.2051729531488946,0.24263925595675875,0.6099447427466731,0.6142151075241069,0.618353153699416,0.5143566676324467,0.5421478963573831,0.503737699122868,0.31960955479482295,0.07521007341451753,-0.10352416442160915,-0.1836375931816516,-0.1936520093055168,-0.1380767600452005,-0.04989686250647838,0.02741796941483368,0.09239401835383625,0.13155992804750333,0.15693857160531122,0.18505122751520076,0.20542401050362574,0.21058148549297234,0.21104344299799335,0.21732862062601416,0.22645751123283078,0.23095045785303114,0.2263260466857168,0.19760389509545553,0.17029405741952505,0.1699055999757277,0.18595423218673995,0.194457624412924,0.19842689631210986,0.18287594254158654,0.17180954650106958,0.18173313858038742,0.18566034606662238,0.183598266649793,0.17555306971818746,0.16153000666876066,0.15952970384553825,0.15455884996974376,0.1571180274566755,0.1597107932149627,0.1638380449193069,0.1650011307863037,0.16020026756835926,0.15393328564240033,0.13869971257573638,0.13399268533787767,0.1233121419749328,0.10815360328200316,0.1080082262058995,0.1048744337745426,0.09124792305696679,0.07462074401038701,0.08348011851689208,0.08332601086138314,0.07415078562697247,0.06494451712292773,0.051199719370273955,0.05540296073607956,0.03555398136931354,0.024636630705888438,0.01814238726093634,0.016061669544540656,0.010886366724673786,-0.00039264916093473436,-0.010286746424144426,-0.015806319253249355,-0.02145922322580801,-0.01825462278473535,-0.024194022815368903,-0.033282190397322504,-0.032023155547867874,-0.020414976010503485,-0.02094798321947496,-0.023117439213538177,-0.010417865068903446,-0.0008344034038594696,0.020641922833255274,0.03602703998965698,0.043833336189332044,0.05007145805124168,0.05625276984956137,0.07288651185738593,0.0744891376591224,0.08356674363973668,0.08513286058763282,0.09119498052612574,0.10926110663612265,0.11834471932896416,0.11545500542287708,0.10959806182077113,0.108279720424494,0.10100901243316505,0.09379099263368597,0.09862896167203597,0.10952949852681196,0.09800337314127827,0.07755206414018517,0.06767531103555689,0.06837652514064269,0.07665940394006679,0.07902948895358318,0.07698881566427564,0.07053933668174829,0.06418168284963181,0.056417381410733804,0.04574763869944762,0.041171193045504206,0.04568780313630134,0.04730014454292237,0.04600816620571433,0.040311892838266826,0.039208933195583044,0.03969919266492258,0.03728269286284404,0.028958944635977937,0.03272290058197966,0.0185793612706632,0.013521097246667784,0.013047343911092257,0.01565664451161922,0.012349038429037142,0.010621051747296413,0.008971022448945742,0.017894737219554674,0.010395744738706917,0.002968448267313501,0.004608760457387084,0.0033169509542098435,0.0005904558935761477,0.0024257580046305703,0.002821835255958706,-0.0012229710605739848,0.002286543498071359,0.0013506959406250879,0.006465107733624409,-0.00036867320453712137,-0.0026563135822008604,-0.004899073248243054,-0.0011001456195050894,-0.003258511413288971,-0.0068764818466785305,-0.01495449720834806,-0.010996404082742389,-0.005499007445700357,-0.0029593167105332963,-0.00037538025467038225,0.0007559715014416584,0.009435757880724854,0.01966811716589445,0.008960575474492003,0.0058099432686615935,0.0042201685088661175,0.007193296462062053,0.01023291266418867,0.007342878958668051,-0.0014742430715011814,-0.005718114475470544,0.0006126805725954485,0.014521974763197575,0.021016095915154315,0.021597864223794852,0.016270307077933994,0.015534157959310152,0.011893816285707006,0.006851730160328192,0.021406228655750245,0.025566223900710845,0.025333026417643192,0.02370844344579119,0.0446897837237559,0.07178266884497783,0.07649499514569941,0.08732243363814673,0.09526807970869657,0.10033271848776715,0.3634623230954586,0.36576474745010806,0.10723798136652767,0.37071517882603294,0.11240930730947135,0.3760967953624377,0.3789338591734289,0.3818574917672861,0.38485712716947423,0.11197774852757006,0.3910325810652324,0.10024024627195148,0.10040458429250695,0.40050630568259943,0.10071485699783234,0.10532201668231757,0.1128701278737877,0.1053419873204961,0.10971045920110524,0.13345194054588674,0.4209929405463373,0.4234244940617659,0.42566190666220716,0.2057239153954146,0.2644766129484512,0.34694244946719144,0.4320938379758965,0.43291519684104235,0.4333531847278992,0.43336978306779583,0.43292480652613785,0.12154054363018207,-0.10341027502835394,-0.2134787071650668,-0.23419474465668358,-0.19706684980689018,-0.1320815486925954,-0.05121039332755722,0.024589485665382573,0.06836707174660851,0.39659971469107885,0.3899592813925886,0.38291704950458344,0.1415606987168586,0.1458273517265948,0.35976084567145883,0.15052857359045163,0.34299259942431043,0.3343115192856389,0.32547483547877293,0.3165122234617701,0.30745173131851034,0.2983198245717566,0.28914143148561505,0.2799399887250696,0.2707374872479462,0.2615545183121278,0.2524103194880611,0.24332282057360147,0.23430868931500676,0.22538337684443238,0.0,0.0,0.0,0.0,0.0,0.0,0.0,0.0,0.0,0.0,0.0,0.0,0.0,0.0,0.0,0.0,0.0,0.0,0.0,0.0,0.0,0.0,0.0,0.0,0.0,0.0,0.0,0.0,0.0,0.0,0.0,0.0,0.0,0.0,0.0,0.0,0.0,0.0,0.0,0.0,0.0,0.0,0.0,0.0,0.0,0.0,0.0,0.0,0.0,0.0,0.0,0.0,0.0,0.0,0.0,0.0,0.0,0.0,0.0,0.0
0.43292480652613785,0.12154054363018207,-0.10341027502835394,-0.2134787071650668,-0.23419474465668358,-0.19706684980689018,-0.1320815486925954,-0.05121039332755722,0.024589485665382573,0.06836707174660851,0.39659971469107885,0.3899592813925886,0.38291704950458344,0.1415606987168586,0.1458273517265948,0.35976084567145883,0.15052857359045163,0.34299259942431043,0.3343115192856389,0.32547483547877293,0.3165122234617701,0.30745173131851034,0.2983198245717566,0.28914143148561505,0.2799399887250696,0.2707374872479462,0.2615545183121278,0.2524103194880611,0.24332282057360147,0.23430868931500676,0.22538337684443238,0.216561162750587,0.20785519970529517,0.19927755757456755,0.1908392669484164,0.18255036202906655,0.17441992282240815,0.16645611658252138,0.15866623846387268,0.1510567513403453,0.14363332475463025,0.13640087296566217,0.12936359206575176,0.12252499614284552,0.1158879524669297,0.10945471568301009,0.1032269609963305,0.09720581633855623,0.09139189350654763,0.0857853182680834,0.08038575943147523,0.07519245687844339,0.07020424856191126,0.06541959647251805,0.060836611579660346,0.05645307775475258,0.05226647468615107,0.04827399979682369,0.04447258917736511,0.0408589375483709,0.03742951726749092,0.034180596397687585,0.031108255854337262,0.028208405649834806,0.025476800255295844,0.022909053099807994,0.020500650228457932,0.018246963141067055,0.01614326083420584,0.014184721069629322,0.01236644089278871,0.010683446425529973,0.009130701957494892,0.0077031183610929005,0.00639556085522404,0.005202856143196737,0.004119798950515279,0.0031411579884034094,0.0022616813690903683,0.001476101499015833,0.0007791394762129226,0.00016550901820726072,-0.0003700800531724597,-0.0008329187436424576,-0.001228262901314041,-0.0015612892470180594,-0.0018370578166099607,-0.002060480323466994,-0.0022362939604737885,-0.002369040174884535,-0.002463047966027539,-0.002522421274414638,-0.002551030051000954,-0.0025525046167204964,-0.002530232944652578,-0.0024873605199375987,-0.0024267924555868526,-0.002351197565361139,-0.0022630141177384464,-0.002164457017428362,-0.00205752618279943,-0.0019440159088038908,-0.0018255250254068354,-0.0017034676810624575,-0.0015790845993481442,-0.0014534546744116078,-0.0013275067873639015,-0.0012020317411223337,-0.0010776942254597263,-0.0009550447371336315,-0.0008345313919501133,-0.0007165115764656225,-0.0006012633967541599,-0.000488996890290492,-0.00037986497452672775,-0.0002739741122103741,-0.00017139467891705203,-7.21710226816723e-05,2.3668790955056755e-05,0.00011610355269947273,0.00020511193491417367,0.00029067202944423244,0.0003727609025754034,0.0004513541672336777,0.0005264255725406718,0.0005979466108468603,0.0006658861423747841,0.000730210037613695,0.0007908808376225421,0.0008478574324099967,0.0009010947575807948,0.0009505435094522537,0.0009961498788680701,0.0010378553039543526,0.0010755962420876811,0.0011093039613683004,0.0011389043519151258,0.0011643177573273497,0.0011854588266825394,0.0012022363874699595,0.00121455333988489,0.001222306572940544,0.0012253869028838308,0.0012236790344289778,0.0012170615453556603,0.0012054068950489239,0.0011885814575860224,0.001166445580009994,0.0011388536664566345,0.0011056542888340988,0.001066690324782594,0.0010217991236710039,0.0009708127014165169,0.000913557964940705,0.0008498569671016728,0.0007795271929677387,0.000702381878322816,0.0006182303613149754,0.0005268784681830468,0.00042812893401429825,0.0003217818595039476,0.00020763520470271218,8.548532075232121e-05,-4.487247938129326e-05,-0.0001836433101588874,-0.0003310280231557263,-0.00048721002383282885,-0.0006523412699889985,-0.0008265274344711399,-0.001009812217705554,-0.001202160800012197,-0.0014034424295503577,-0.0016134121492037516,-0.0018316916748253055,-0.002057749448113637,-0.0022908799000587246,-0.002530181975453052,-0.0027745369854986408,-0.0030225858741099254,-0.0032727060041877125,-0.0035229875929751087,-0.0037712099506445173,-0.004014817703547169,-0.0042508972130899285,-0.004476153432997682,-0.00468688748176045,-0.00487897524329189,-0.005047847347195522,-0.005188470920426703,-0.005295333544443726,-0.005362429895967137,-0.005383251595031504,-0.005350780830831484,-0.005257488383660312,-0.005095336709632384,-0.004855788803465754,-0.004529823602891193,-0.004107958745703093,-0.0035802815364538504,-0.002936489023615006,-0.0021659381289125456,-0.0012577068076151904,-0.0002006672508698952,0.0010164278323233032,0.0024048447963525687,0.0039758449134671674,0.005740677431692643,0.007710571719830219,0.009896728443294292,0.012310309714640684,0.014962428162782915,0.017864134865086208,0.021026406086775317,0.024460128772400988,0.028176084734483665,0.032184933484900334,0.03649719365510462,0.04112322295188259,0.04607319659605214,0.05135708419231688,0.05698462497939757,0.06296530141059463,0.06930831101608385,0.07602253649953412,0.08311651402305971,0.09059839963609256,0.0984759338054947,0.10675640400613041,0.11544660533319533,0.1245527990998651,0.13408066938628904,0.144035277508621,0.154421014379668,0.16524155073584962,0.1764997852085139,0.18819779022125516,0.20033675569874188,0.21291693057669137,0.22593756210704286,0.2393968329570825,0.0,0.0,0.0,0.0,0.0,0.0,0.0,0.0,0.0,0.0,0.0,0.0,0.0,0.0,0.0,0.0,0.0,0.0,0.0,0.0,0.0,0.0,0.0,0.0,0.0,0.0,0.0,0.0,0.0,0.0,0.0,0.0,0.0,0.0,0.0,0.0,0.0,0.0,0.0,0.0,0.0,0.0,0.0,0.0,0.0,0.0,0.0,0.0,0.0,0.0,0.0,0.0,0.0,0.0,0.0,0.0,0.0,0.0,0.0,0.0
0.8365235694579366,0.6071974626291003,0.15339977550202819,-0.3135126101953543,-0.3152391644997794,-0.3062553393437451,-0.2985987597588136,-0.2922804547110296,-0.28728308628426075,-0.283561549919177,0.11037504733186902,0.5466984878285396,0.9205294136729213,0.9200288272818393,0.9187104192230194,0.9166610361373504,0.9139629311136248,0.9106937739354544,0.9069266645717955,0.9027301495227346,0.8981682406550345,0.5303760064842555,0.11734225230461778,-0.31688566277253954,0.2340344942057489,0.8118841392246363,0.8663585795783094,0.8609379659398805,0.8556821188861634,0.8506590452627454,0.8459324735046184,0.8415618787515484,0.8376025064809336,0.8341053943607785,0.8311173920465545,0.8286811786667623,0.8268352777629413,0.825614069470738,0.8250477997494099,0.8251625864878671,0.8259804223360203,0.8275191741308486,0.8297925788072189,0.8328102357041268,0.8365775951976747,0.841095943612786,0.8463623843864077,0.852369815475769,0.8591069030261772,0.8665580513338618,0.8747033691605379,0.8835186324776629,0.8929752437398493,0.9030401878085463,0.913675984668985,0.9248406391054568,0.9364875875223296,0.9485656421207761,0.9610189326640309,0.973786846087118,0.9868039642303977,1.0,0.8333372051580406,0.3352668982612985,-0.024893050241006333,-0.14674962683874143,-0.13386498392275387,-0.12128077491607483,-0.10905404072511807,-0.09723030058268037,-0.08584471358768957,-0.07492320196051808,-0.06448353267374747,-0.05453635499577296,-0.04508619225938525,-0.03613238684365059,-0.027669997939370354,-0.01969065216059569,-0.012183347471573175,-0.005135211224593796,0.0014677866460611321,0.007640164051177088,0.013396431562605806,0.018751061551378744,0.023718459406369057,0.028312936761142292,0.0325486866569671,0.036439760570428505,0.0400000472346776,0.04324325318406271,0.04618288495269541,0.04883223285842157,0.05120435630466194,0.0533120705336728,0.05516793476592852,0.056784241661550966,0.058173008040988135,0.059345966803478936,0.060314559983222195,0.061089932884582594,0.061682929239124155,0.062104087328746616,0.062363637020703355,0.062471497661810815,0.062437276780700206,0.06227026954851451,0.06197945895001247,0.0615735166186052,0.06106080429040822,0.06044937583395433,0.05974697981375451,0.05896106254744049,0.058098771617744654,0.05716695980208673,0.05617218938402781,0.055120736812329686,0.054018597674807246,0.05287149195559073,0.051684869545821896,0.05046391597918257,0.049213558365006786,0.04793847149304845,0.0466430840852695,0.04533158517127455,0.04400793056524718,0.04267584942344533,0.04133885086247343,0.04000023061968884,0.038663077738194364,0.03733028125994002,0.036004536911486716,0.03468835376798924,0.033384060881917414,0.03209381386397208,0.030819601404549993,0.0295632517249779,0.028326438948575332,0.027110689382402672,0.025917387701325414,0.024747783026762525,0.023602994893193403,0.022484019096182875,0.02139173341632075,0.02032690321410177,0.019290186891353096,0.01828214121538562,0.017303226502575448,0.016353811658592066,0.01543417907297228,0.014544529366194513,0.013684985987841607,0.012855599664849369,0.012056352699223791,0.011287163114972198,0.010547888654338606,0.009838330623750882,0.00915823759019392,0.008507308928998768,0.007885198224308717,0.007291516523721861,0.006725835448844979,0.006187690163702184,0.005676582203140083,0.005191982163554292,0.0047333322584293255,0.004300048741338664,0.0038915241991945787,0.0035071297186653133,0.003146216928797888,0.002808119922990288,0.002492157063555772,0.002197632672207805,0.0019238386098739185,0.0016700557493183148,0.0014355553441119235,0.0012196002975465416,0.0010214463351372553,0.0008403430843970253,0.0006755350656074174,0.0005262625973342281,0.00039176262046793027,0.00027126944458604195,0.0001640154204529048,6.923154248527918e-05,-1.3852014976783359e-05,-8.600542375146315e-05,-0.0001479975397153506,-0.00020058904822971307,-0.0002445265748892842,-0.00028053768932904103,-0.0003093267311590878,-0.00033157138890860683,-0.0003479199650672106,-0.00035898926284221163,-0.00036536303304397674,-0.0003675909225027815,-0.000366187868560284,-0.0003616338874201329,-0.0003543742074386358,-0.0003448197017528029,-0.0003333475779500795,-0.0003203022857459261,-0.0003059966068363092,-0.0002907128941997011,-0.0002747044311366139,-0.00025819688322231465,-0.00024138981911071722,-0.000224458278751667,-0.00020755437006200183,-0.0001908088774215564,-0.0001743328675446133,-0.00015821928030192793,-0.00014254449394143504,-0.00012736985587946992,-0.00011274317180509024,-9.870014727077264e-05,-8.52657772280638e-05,-7.245568011414124e-05,-6.027737411720917e-05,-4.873149413562671e-05,-3.7812948717287994e-05,-2.7512016918115705e-05,-1.781538556364679e-05,-8.707127837512133e-06,-1.6962446166822926e-07,7.815571018744643e-06,1.5266921173470747e-05,2.2202849494390266e-05,2.864170313855254e-05,3.460171824960947e-05,4.010098776227858e-05,4.515743160345621e-05,4.978876919421067e-05,5.401249416887325e-05,5.7845851218120885e-05,6.130581496987075e-05,6.440907082273941e-05,6.717199764575354e-05,6.961065226239482e-05,7.174075563559639e-05,0.0,0.0,0.0,0.0,0.0,0.0,0.0,0.0,0.0,0.0,0.0,0.0,0.0,0.0,0.0,0.0,0.0,0.0,0.0,0.0,0.0,0.0,0.0,0.0,0.0,0.0,0.0,0.0,0.0,0.0,0.0,0.0,0.0,0.0,0.0,0.0,0.0,0.0,0.0,0.0,0.0,0.0,0.0,0.0,0.0,0.0,0.0,0.0,0.0,0.0,0.0,0.0,0.0,0.0,0.0,0.0,0.0,0.0,0.0,0.0
0.8333372051580406,0.3352668982612985,-0.024893050241006333,-0.14674962683874143,-0.13386498392275387,-0.12128077491607483,-0.10905404072511807,-0.09723030058268037,-0.08584471358768957,-0.07492320196051808,-0.06448353267374747,-0.05453635499577296,-0.04508619225938525,-0.03613238684365059,-0.027669997939370354,-0.01969065216059569,-0.012183347471573175,-0.005135211224593796,0.0014677866460611321,0.007640164051177088,0.013396431562605806,0.018751061551378744,0.023718459406369057,0.028312936761142292,0.0325486866569671,0.036439760570428505,0.0400000472346776,0.04324325318406271,0.04618288495269541,0.04883223285842157,0.05120435630466194,0.0533120705336728,0.05516793476592852,0.056784241661550966,0.058173008040988135,0.059345966803478936,0.060314559983222195,0.061089932884582594,0.061682929239124155,0.062104087328746616,0.062363637020703355,0.062471497661810815,0.062437276780700206,0.06227026954851451,0.06197945895001247,0.0615735166186052,0.06106080429040822,0.06044937583395433,0.05974697981375451,0.05896106254744049,0.058098771617744654,0.05716695980208673,0.05617218938402781,0.055120736812329686,0.054018597674807246,0.05287149195559073,0.051684869545821896,0.05046391597918257,0.049213558365006786,0.04793847149304845,0.0466430840852695,0.04533158517127455,0.04400793056524718,0.04267584942344533,0.04133885086247343,0.04000023061968884,0.038663077738194364,0.03733028125994002,0.036004536911486716,0.03468835376798924,0.033384060881917414,0.03209381386397208,0.030819601404549993,0.0295632517249779,0.028326438948575332,0.027110689382402672,0.025917387701325414,0.024747783026762525,0.023602994893193403,0.022484019096182875,0.02139173341632075,0.02032690321410177,0.019290186891353096,0.01828214121538562,0.017303226502575448,0.016353811658592066,0.01543417907297228,0.014544529366194513,0.013684985987841607,0.012855599664849369,0.012056352699223791,0.011287163114972198,0.010547888654338606,0.009838330623750882,0.00915823759019392,0.008507308928998768,0.007885198224308717,0.007291516523721861,0.006725835448844979,0.006187690163702184,0.005676582203140083,0.005191982163554292,0.0047333322584293255,0.004300048741338664,0.0038915241991945787,0.0035071297186653133,0.003146216928797888,0.002808119922990288,0.002492157063555772,0.002197632672207805,0.0019238386098739185,0.0016700557493183148,0.0014355553441119235,0.0012196002975465416,0.0010214463351372553,0.0008403430843970253,0.0006755350656074174,0.0005262625973342281,0.00039176262046793027,0.00027126944458604195,0.0001640154204529048,6.923154248527918e-05,-1.3852014976783359e-05,-8.600542375146315e-05,-0.0001479975397153506,-0.00020058904822971307,-0.0002445265748892842,-0.00028053768932904103,-0.0003093267311590878,-0.00033157138890860683,-0.0003479199650672106,-0.00035898926284221163,-0.00036536303304397674,-0.0003675909225027815,-0.000366187868560284,-0.0003616338874201329,-0.0003543742074386358,-0.0003448197017528029,-0.0003333475779500795,-0.0003203022857459261,-0.0003059966068363092,-0.0002907128941997011,-0.0002747044311366139,-0.00025819688322231465,-0.00024138981911071722,-0.000224458278751667,-0.00020755437006200183,-0.0001908088774215564,-0.0001743328675446133,-0.00015821928030192793,-0.00014254449394143504,-0.00012736985587946992,-0.00011274317180509024,-9.870014727077264e-05,-8.52657772280638e-05,-7.245568011414124e-05,-6.027737411720917e-05,-4.873149413562671e-05,-3.7812948717287994e-05,-2.7512016918115705e-05,-1.781538556364679e-05,-8.707127837512133e-06,-1.6962446166822926e-07,7.815571018744643e-06,1.5266921173470747e-05,2.2202849494390266e-05,2.864170313855254e-05,3.460171824960947e-05,4.010098776227858e-05,4.515743160345621e-05,4.978876919421067e-05,5.401249416887325e-05,5.7845851218120885e-05,6.130581496987075e-05,6.440907082273941e-05,6.717199764575354e-05,6.961065226239482e-05,7.174075563559639e-05,7.357768067523665e-05,7.513644158674592e-05,7.643168468769939e-05,7.747768061247726e-05,7.828831783719368e-05,7.887709744923728e-05,7.925712909429116e-05,7.944112803196841e-05,7.944141323639401e-05,7.926990647579947e-05,7.893813231132411e-05,7.845721895428397e-05,7.783789992529889e-05,7.709051645826858e-05,7.622502059764957e-05,7.525097893548718e-05,7.41775769379863e-05,7.301362381673297e-05,7.17675578948837e-05,7.044745242756331e-05,6.906102183184984e-05,6.761562828785197e-05,6.611828866998683e-05,6.45756817744924e-05,6.299415580574561e-05,6.137973608968496e-05,5.973813298130378e-05,5.807474993611191e-05,5.63946917189252e-05,5.470277272081286e-05,5.300352535889453e-05,5.130120853660968e-05,4.95998161392848e-05,4.790308554621724e-05,4.621450613716469e-05,4.453732777632408e-05,4.287456925501868e-05,4.122902667790891e-05,3.96032817766096e-05,3.799971013699436e-05,3.642048932859859e-05,3.486760692186897e-05,3.334286838500099e-05,3.1847904847843844e-05,3.0384180726079585e-05,2.8953001195553363e-05,2.755551951129355e-05,2.619274416256392e-05,2.4865545861017428e-05,2.357466435422605e-05,2.2320715062455533e-05,2.1104195532291472e-05,1.9925491706583924e-05,1.878488400711421e-05,1.7682553228252273e-05,1.6618586239340234e-05,1.559298149686777e-05,1.4605654363775252e-05,1.365644223774951e-05,1.2745109488512184e-05,1.1871352202768678e-05,1.1034802741612885e-05,0.0,0.0,0.0,0.0,0.0,0.0,0.0,0.0,0.0,0.0,0.0,0.0,0.0,0.0,0.0,0.0,0.0,0.0,0.0,0.0,0.0,0.0,0.0,0.0,0.0,0.0,0.0,0.0,0.0,0.0,0.0,0.0,0.0,0.0,0.0,0.0,0.0,0.0,0.0,0.0,0.0,0.0,0.0,0.0,0.0,0.0,0.0,0.0,0.0,0.0,0.0,0.0,0.0,0.0,0.0,0.0,0.0,0.0,0.0,0.0
-0.009612429664438357,-0.009687176489694981,0.29619934052659297,0.3756612475032464,0.42815879986743577,0.4536919071774468,0.39077114143013303,0.19140199569712615,-0.009450088229386186,-0.009334677895623101,-0.009216441392821278,-0.009101004729134646,-0.008993118350784696,-0.00889666810854328,-0.008814685506938893,-0.008749356867029363,-0.008702031114749051,0.027319279437708878,0.05732362741729017,0.08131118518352157,-0.008695677796723492,-0.008739951597229331,0.08717741996099794,-0.008882470950494756,-0.008978881249842181,-0.009090281885383874,-0.009214276345504195,0.09862991173270749,-0.009486131029648685,0.10135067821264991,0.1012135832094527,0.10108351241149113,0.09796462102292476,0.09185993428242033,0.09776886486588894,0.09769723617680108,0.10664351274707135,0.10661254064966492,0.10360363635654163,0.1126137096331679,-0.010327746732875938,0.12169765199381191,0.11877102959847283,0.11586360549031793,0.12197223623647527,0.11909882001741631,-0.009734744765875079,-0.009584599149849347,-0.009426017235149353,0.1167135508404418,0.11088749254583345,0.10206804509919584,0.10525062410258056,-0.008539886881540405,-0.008354076295430056,0.08781011618610236,-0.007988246160794235,-0.007810452313133282,0.08834292423674812,0.08251327215286987,0.07367970813954981,0.06784029732057822,0.06799336096913478,0.06214000389656245,0.05927661911188867,-0.006585097377626167,0.05051379202605305,-0.006379088236641488,-0.006301304812733557,-0.006242352693175589,0.059783265289902944,0.05980285949126601,0.05980222118596367,0.05978058268921104,-0.006249382640420577,-0.006316520510660926,-0.006407862774501429,-0.006523581269947418,-0.006663239088040588,-0.006825779579601941,0.10696675409091701,0.11876166748043672,-0.007431741563699607,0.14530092426006636,-0.007916632722600488,0.1597862459455776,0.15351455172784922,-0.008734320539816353,0.16493757783283294,-0.009326151914895192,-0.009633801499487714,0.17601339649511966,0.1996900704477473,-0.010587489739337382,0.20204424223876286,0.18972147684806978,-0.011562982594672274,0.1920665527048956,-0.012220216996298005,-0.012551212040892004,-0.012883314813919956,-0.01321468459451872,0.22040902851453315,0.2410852021856299,0.23177895698069909,0.20748918271974376,0.21320736484868064,0.2189395650657654,-0.015265502612462642,-0.015508861274656682,0.20621109297795637,0.21498549864411687,0.21777080991005585,-0.016386409967692986,-0.01658683080229194,0.20517098651879168,-0.016973791694218174,0.2257890873506601,0.21960936938581058,0.21943394221675377,0.21926293127208307,0.2340909929751697,-0.018026482320190967,0.22774675805722244,-0.018385960166431906,-0.01858218960653127,-0.018792884491159415,0.21793221404286486,-0.019257492671335093,0.22343968293708108,0.2321745065499007,0.23490051860044062,0.22561881338803383,0.21932493887390936,0.22201518856901964,0.2276872575513428,0.23033773082291423,-0.02198673212024956,0.22055077752055627,0.22909715941313374,-0.02334793374424938,-0.02389841336654297,0.24543707759347763,0.24176895699523837,0.24103591392785614,-0.02671090364105681,0.2123611043968624,0.21140372148639014,-0.029587843167817665,0.22722692382947943,0.2290017470398891,-0.03326567299626846,0.24725134221560102,0.24572238548300823,0.24408535517054078,-0.03960566395827993,0.23446861150742926,0.24447722706991046,-0.04557557566934139,-0.047816683464430736,0.21075937893590022,-0.052679984553773464,0.2176487283030691,0.22092061951022202,-0.06085330418192234,0.23615324228247792,-0.06680235783643111,-0.0698967137602833,0.2283869636183507,0.2356957640848705,0.23849264294633366,0.24129808453640775,0.23063512801312644,0.23501686237307862,0.2334655284780599,0.22899719572211294,0.23212520480181278,0.23236612326326617,0.24173067391707975,0.24223466322254478,0.2383880048761072,0.2421978400310713,0.24017542655812288,0.2413261272292719,0.24415628985715088,0.23067449063737172,0.23237777994324982,0.22827298436442453,0.21236264586198453,0.1921453545664112,0.2006133301375503,0.2017721961108674,0.19861845383208554,0.2016460344161217,0.20485131089923908,0.2067287112656337,0.2102707024210516,0.21097027899750767,0.22231563698592385,0.23229922618323295,0.24990801297267193,0.26163248635082265,0.32744658434991375,0.38434854330487717,0.46231560133188926,0.5058408744204178,0.5448973673659158,0.57196336260859,0.5270253476905878,0.33956913625499846,0.13703668665478508,-0.1016008254802299,-0.04044723090734061,-0.09943932222703213,-0.09863495913887538,-0.09803259077242048,-0.09763378689470122,-0.0974308041766278,0.1845346684152139,0.2039022607953813,0.20664611182550477,0.22278430830687887,0.23734327202919026,0.25634393902507296,0.2633107427202766,0.2537643366291351,0.23822093497261837,0.23469392178018736,0.225202984551789,0.2307585181946696,0.24237603708045333,0.24207177543196368,0.24785326101667765,0.2447336812704261,0.24921842660946864,0.2583157233432042,0.26303380078475835,0.2603783475727797,0.25635186353312234,0.2704527361342174,0.0,0.0,0.0,0.0,0.0,0.0,0.0,0.0,0.0,0.0,0.0,0.0,0.0,0.0,0.0,0.0,0.0,0.0,0.0,0.0,0.0,0.0,0.0,0.0,0.0,0.0,0.0,0.0,0.0,0.0,0.0,0.0,0.0,0.0,0.0,0.0,0.0,0.0,0.0,0.0,0.0,0.0,0.0,0.0,0.0,0.0,0.0,0.0,0.0,0.0,0.0,0.0,0.0,0.0,0.0,0.0,0.0,0.0,0.0,0.0
0.5270253476905878,0.33956913625499846,0.13703668665478508,-0.1016008254802299,-0.04044723090734061,-0.09943932222703213,-0.09863495913887538,-0.09803259077242048,-0.09763378689470122,-0.0974308041766278,0.1845346684152139,0.2039022607953813,0.20664611182550477,0.22278430830687887,0.23734327202919026,0.25634393902507296,0.2633107427202766,0.2537643366291351,0.23822093497261837,0.23469392178018736,0.225202984551789,0.2307585181946696,0.24237603708045333,0.24207177543196368,0.24785326101667765,0.2447336812704261,0.24921842660946864,0.2583157233432042,0.26303380078475835,0.2603783475727797,0.25635186353312234,0.2704527361342174,0.27118868839998994,0.25106109470724347,0.24906029299642254,0.24718723231317002,0.24543786911408313,0.2573041134539115,0.25428539186908095,0.26036891478667257,0.25754936487782926,0.24581637568153938,0.2596511106887699,0.264547868911002,0.2529940301727921,0.2444700306279808,0.2509566028300833,0.25443950246176233,0.24440166905284139,0.24331789990839986,0.24366801580447292,0.24692874728380557,0.24857685564492382,0.25158630617279204,0.2574301335420612,0.2600816758656763,0.24451485774970497,0.20769980520011483,-0.06185117227027251,-0.061775446055028826,-0.062043690594356,0.207266869711499,0.2032541571019565,-0.06509985933705284,0.20901964346020593,-0.0691703635662034,-0.07185428979763737,0.17996677363330862,0.16740223670796892,-0.08255305814947134,0.18894250477904168,-0.09188001746261468,-0.09718647593077909,-0.1029041594418494,0.20592583996075783,0.2174651914391782,0.227185608777488,0.24411736276113283,0.24579614600077943,0.23675080958891065,0.22600803881538412,0.23759021247635848,0.2400301334645058,0.2423509853243788,0.22957974783330395,0.22723375761662432,0.22633638570214,0.2134108037707581,0.20497280634215614,0.21453774542992288,0.21812775503274162,0.2157589000771277,0.20744615485082102,0.1992021657512007,0.19853822967090637,0.19196901932725982,0.17650602882867866,0.13866197835623956,0.14143277958865685,0.15933207505869168,0.16087404923106727,0.14006678125272548,0.11791192496899101,0.11091137071317746,0.11307110336844917,0.11239780235697737,0.11489383445783564,0.09356787448831692,0.07391709320776474,0.07843881808408036,0.08463937521865046,0.07602344942291117,0.08258562181850555,0.0863300861767112,0.07525937424483634,0.05837121428424745,0.037164519629264946,0.032633852196591984,0.04927702309394927,0.04660104847874813,0.012606764917948427,0.00877947454897989,0.021620030173700358,0.028631114340385184,0.026811241935613118,0.025156286498670785,0.026663236608495348,0.02833020415845159,0.03315391862986101,0.012637525606290423,-0.0032281737829237254,-0.014446196116771929,-0.009021749489455588,0.0025460145029307887,0.0052597381523894855,0.00961674236344397,0.015616507659682373,0.012760652398736336,0.011546345020188267,0.00897350062604408,0.011040102942794394,0.014745964473216897,0.008092716163364924,-0.0014221443320761086,0.0011972788081728984,0.0009532619884036734,0.0068430792430732015,0.011367434853944274,0.010026374339453392,-0.003179801345172246,-0.013255213212087962,-0.006703367918356099,-2.0267396482731433e-05,0.005295600501327698,0.012244813026378329,0.013330106869725147,0.013051659306638505,0.027907082770133877,0.02190485402370715,0.025039570240977745,0.03281290137249128,0.04822483080111688,0.057778612858832255,0.06447382573984556,0.057812569210986056,0.07228725245100259,0.08390217426043514,0.08365814926391077,0.07755244983553469,0.09707662140125983,0.10923524940528728,0.1260230656897595,0.14593706638625722,0.14197892616843885,0.11714334454532951,0.09392025156977792,0.0798021143175605,0.10177687070165001,0.11934611195287524,0.12950311356858485,0.1337396174936727,0.13804578133556955,0.13641359219533905,0.1318324733013477,0.13478960444417562,0.14227431671772187,0.15277495499389812,0.13478539825233354,0.10928783200910532,0.1257578346479633,0.15568667635968017,0.16906531081982046,0.19887079776403452,0.22708996891623057,0.2791996057013411,0.35518066275186005,0.4445148846200081,0.5186859872422728,0.5656720289671028,0.589945039699395,0.5089923328738748,0.2837892162550821,0.06126973067422548,-0.05362475831254625,-0.3098794948419847,-0.3086095310517059,-0.006326471597597484,0.04961043271213522,0.09018046189622439,0.1424051171804862,0.17481762757306446,0.19194301548135542,0.1983054292246177,0.21642431011945132,0.22532716390029714,0.2160379159883247,0.19307655470319865,0.19695449359984196,0.21869248589125115,0.21181810686708089,0.1883456596699191,0.16928651470802894,0.18614891474361983,0.19545586980458032,0.19122165232509855,0.18395612244639817,0.19466599828368572,0.1948673832124021,0.19206791270283552,0.18327643380611341,0.1789980227681141,0.17324027446616252,0.16900801514367916,0.15880739076046785,0.15164026722264054,0.15800740412539055,0.16441379924601568,0.15586397259875817,0.15335412755370234,0.1523849968184757,0.0,0.0,0.0,0.0,0.0,0.0,0.0,0.0,0.0,0.0,0.0,0.0,0.0,0.0,0.0,0.0,0.0,0.0,0.0,0.0,0.0,0.0,0.0,0.0,0.0,0.0,0.0,0.0,0.0,0.0,0.0,0.0,0.0,0.0,0.0,0.0,0.0,0.0,0.0,0.0,0.0,0.0,0.0,0.0,0.0,0.0,0.0,0.0,0.0,0.0,0.0,0.0,0.0,0.0,0.0,0.0,0.0,0.0,0.0,0.0
0.589945039699395,0.5089923328738748,0.2837892162550821,0.06126973067422548,-0.05362475831254625,-0.3098794948419847,-0.3086095310517059,-0.006326471597597484,0.04961043271213522,0.09018046189622439,0.1424051171804862,0.17481762757306446,0.19194301548135542,0.1983054292246177,0.21642431011945132,0.22532716390029714,0.2160379159883247,0.19307655470319865,0.19695449359984196,0.21869248589125115,0.21181810686708089,0.1883456596699191,0.16928651470802894,0.18614891474361983,0.19545586980458032,0.19122165232509855,0.18395612244639817,0.19466599828368572,0.1948673832124021,0.19206791270283552,0.18327643380611341,0.1789980227681141,0.17324027446616252,0.16900801514367916,0.15880739076046785,0.15164026722264054,0.15800740412539055,0.16441379924601568,0.15586397259875817,0.15335412755370234,0.1523849968184757,0.13795873224782312,0.11907172738806464,0.12421562643031316,0.12489334461771671,0.10610436564960556,0.09783818053963507,0.08959218117668885,0.07836170888892235,0.07313915885186474,0.06492028172008113,0.0626967151647617,0.06646164589947827,0.06271075761991217,0.05743534215196952,0.049127939137593474,0.03928017649408638,0.03388249967715966,0.02842734365939745,0.013907910822780787,-0.006685236779148147,-0.022863168002226635,-0.021136941152727833,-0.01201044615252389,-0.005985564914077281,-0.01506272608350091,-0.012249908801332112,-0.005046478947934038,-0.006949389566473454,-0.016458237024267585,-0.03357164522265978,-0.03429167091391708,-0.01861218516056936,0.004478072327380667,0.012494940463206065,0.006949239386377359,0.02984329536460627,0.06169220315197483,0.0875099714641931,0.09081061282992042,0.07760301811848289,0.07639094003666658,0.0766858623992585,0.07099826251841523,0.06833479926336583,0.08969927832030619,0.10810515646831766,0.11006263152440456,0.08508073623185862,0.08415514978824665,0.08779580286381193,0.0825109562571886,0.07280468450041576,0.06917940047489102,0.06714027577824008,0.07568932564540072,0.08283260144544265,0.09607171653926153,0.07791723834369751,0.0628642647666854,0.07640937777375847,0.09455915004997315,0.07382383179504261,0.030700709454327527,0.028177019861112863,0.040758270509074594,0.03395170165057975,0.019754669253726043,0.026660924514487344,0.04867130215668756,0.03629555954451463,0.013527909261357968,0.008861445590914075,0.01329700202645952,0.011836616849903153,0.007478514570562961,0.0062202359667425594,0.01255959669813775,0.005499689980670468,0.009034178013327485,0.0036657514416323037,0.00888893661712684,0.011205111589827106,0.009113111773345547,0.010109842911946313,0.008194975650020192,0.004866568712918076,0.00012295212507774922,0.0014608702082680963,-0.004618561494991735,-0.0016204802258348665,0.002955411921388581,0.004608942250019771,0.007838049642549891,0.005143148128479373,0.004021489807409948,-0.0015268884711117656,0.003493658199501126,0.008584228437646233,0.016743092927744656,0.003974100364446331,-0.0072286647659801995,-0.0033692642039778657,-0.0039442029396055955,-0.005954349992298781,-0.0004014487780737802,0.015714572046162542,0.024398193796648027,0.015152257846935005,0.008972925826340643,-0.00013809546573612222,-0.00618164228624593,-0.010656976403244894,-0.0030652705204923894,0.0030983114544514316,0.0093357740750753,0.01414973095124078,0.02054181219204389,0.02551482625378611,0.03506960523991763,0.040209976419407906,0.03643865489130504,0.04775222149943893,0.04715769220917698,0.0646499778141069,0.06873655655192268,0.07591459064354743,0.08318495818866717,0.09354690861815453,0.09800177362981162,0.10854604535138666,0.10418259592899089,0.10140594792938246,0.10621228892409519,0.10510135901646903,0.10856737086495831,0.10460869573069816,0.11421629201073805,0.12838684053794994,0.11862051062529147,0.08641058417221642,0.07224163085253395,0.08660403376643336,0.09049811984679659,0.09441347796548981,0.10134080587360525,0.10077313972053081,0.10019926166404433,0.10410807454415519,0.13048516973887878,0.1463262354006698,0.177114128571497,0.24833097466215215,0.3599633221701901,0.7369496368435337,0.7404064544173677,0.5847689419925756,0.5759495159258997,0.40348601332901135,0.13333501080077245,-0.056072353037400824,-0.13777406656867566,-0.14628998807011326,-0.12062595046055562,-0.08177763639755863,-0.01773613910061564,0.05652083801760885,0.10202227286110567,0.1292865556888286,0.14733187892233243,0.1621764130983234,0.1648407148337637,0.15684234394579463,0.15319522558229784,0.16741281295340008,0.16801716151205184,0.15952199507197742,0.16143707462144305,0.16627698447011058,0.1680551894683037,0.1607843230814237,0.15347305575927386,0.15212987857797222,0.15226470116611335,0.15238604795496888,0.14950199432626957,0.14811829236168123,0.1527399466328979,0.15737340703790714,0.15302498432289352,0.1426977041752857,0.13539257806173052,0.13111177760414433,0.13285617291362298,0.13012878900805971,0.12442948843276284,0.12175654626720024,0.1251082399913278,0.12248536104202054,0.12288370347944272,0.0,0.0,0.0,0.0,0.0,0.0,0.0,0.0,0.0,0.0,0.0,0.0,0.0,0.0,0.0,0.0,0.0,0.0,0.0,0.0,0.0,0.0,0.0,0.0,0.0,0.0,0.0,0.0,0.0,0.0,0.0,0.0,0.0,0.0,0.0,0.0,0.0,0.0,0.0,0.0,0.0,0.0,0.0,0.0,0.0,0.0,0.0,0.0,0.0,0.0,0.0,0.0,0.0,0.0,0.0,0.0,0.0,0.0,0.0,0.0
0.177114128571497,0.24833097466215215,0.3599633221701901,0.7369496368435337,0.7404064544173677,0.5847689419925756,0.5759495159258997,0.40348601332901135,0.13333501080077245,-0.056072353037400824,-0.13777406656867566,-0.14628998807011326,-0.12062595046055562,-0.08177763639755863,-0.01773613910061564,0.05652083801760885,0.10202227286110567,0.1292865556888286,0.14733187892233243,0.1621764130983234,0.1648407148337637,0.15684234394579463,0.15319522558229784,0.16741281295340008,0.16801716151205184,0.15952199507197742,0.16143707462144305,0.16627698447011058,0.1680551894683037,0.1607843230814237,0.15347305575927386,0.15212987857797222,0.15226470116611335,0.15238604795496888,0.14950199432626957,0.14811829236168123,0.1527399466328979,0.15737340703790714,0.15302498432289352,0.1426977041752857,0.13539257806173052,0.13111177760414433,0.13285617291362298,0.13012878900805971,0.12442948843276284,0.12175654626720024,0.1251082399913278,0.12248536104202054,0.12288370347944272,0.11430282077246408,0.10573728013592616,0.09568326318832207,0.08413611058777905,0.08608756183645788,0.07453767942698797,0.06597703946920282,0.05889959267211948,0.04280083350334791,0.04766753053547822,0.04349872929553521,0.04078480557583446,0.03651872814073053,0.029192949556585048,0.018799427522153807,0.009829036949549771,-0.002225567602461548,0.0006235351702248663,-0.008626153780412088,-0.020984631195230728,-0.027461074330480197,-0.04305767051900508,-0.021286801524155942,-0.01613583627492518,-0.023102300138797553,-0.019685932866392412,-0.0118783462844798,-0.022165847042591717,-0.011546416579930463,-0.004002815073696815,-0.005520453079097221,0.0049100181847230445,0.021304092873032154,0.043675991495147205,0.06604107713578103,0.07341636814347939,0.07631324400399633,0.0852427171212453,0.0942188533465352,0.1002546677696592,0.11535958164649321,0.13054688679508497,0.14432773686574885,0.14771419414419035,0.1287182238253608,0.13233918612256867,0.15858516587695495,0.16697201763078656,0.15000793297326978,0.13919214951043118,0.12853096165775904,0.1255271574043084,0.12568538027604653,0.1215102707110838,0.12200240570701353,0.11816550199765609,0.11749923129118785,0.12000423583810033,0.12418088266669369,0.12253018787994918,0.12104973621074909,0.11223931020672191,0.10959371533130421,0.11011063086499719,0.11078718811972539,0.11761809421046865,0.13059875141212643,0.13472709664877772,0.13749572974126864,0.14189751369685713,0.13892712223587292,0.1345753968514267,0.13483248440101794,0.13968910796102213,0.12963937600693848,0.13616608125391447,0.13826229780899446,0.14041511029141068,0.1396124733787315,0.14183976602918355,0.1545813568646614,0.17332340349994993,0.18755253973890992,0.23474454000150288,0.3388770514106771,0.6573987549837907,0.659399971102906,0.637296294749494,0.6270534227531948,0.42168445384451425,0.12613439850211247,-0.09316664445018706,-0.17476734768299923,-0.1666847370362671,-0.1139198599998338,-0.04796073947920971,0.03420824170559861,0.0906166252237868,0.12878347666249512,0.1457295944434931,0.14897294715341147,0.14753046245694368,0.15341769860611743,0.17265072529650818,0.18125109061449962,0.19573104799579236,0.19211037601769043,0.17790131684899177,0.16211483983264907,0.1567604002571007,0.1603494533022713,0.16539391944194443,0.16590460512867214,0.15589148984540915,0.1578577903467485,0.15531406305292544,0.15276570325971273,0.1442195156103232,0.14017810590583774,0.14064554476751467,0.13962645102194285,0.13112474026798743,0.1301392581367476,0.11867506466285235,0.10873032370533904,0.10480416711774686,0.10689611992389166,0.10750674449657899,0.1126332582623293,0.09527921114117176,0.08543572347617209,0.07260187061139688,0.06127317797264469,0.0544451202503262,0.05211349031689222,0.05127443336712249,0.04892383402834515,0.028560131021407028,0.017172462502998177,0.01775482021259444,0.027302359123219416,0.020314829543271462,0.011783413872296788,0.010700442031554172,-0.005435257221500815,-0.009635213672469608,-0.013902321634426097,-0.021240433718935674,-0.033152394090973536,-0.02564433773171752,-0.030207696008199766,-0.021343330486040084,-0.005042675246471332,-0.0022920140146796704,0.0034150416891706894,0.013588220825897465,0.031236923007144892,0.05937047990345311,0.0650055615759086,0.05565010983614185,0.06280674508453458,0.08948374267625547,0.107195621686014,0.11745020829050505,0.11725572951021045,0.1006204496625006,0.08254767495058753,0.09003771028371468,0.08710356333928311,0.09474592519547023,0.10097192143986822,0.09528789165647804,0.08669561100814788,0.076697939588093,0.07279605491561325,0.07949137556824085,0.07728995252667438,0.06469369202715397,0.058200366568576425,0.04731304611274948,0.04402982551017237,0.03935293488162441,0.028783447376862364,0.009321927107003561,0.01846036286887189,0.03670256326032796,0.038553493673278365,0.04050919231579179,0.03657018873794443,0.026735560847990832,0.0245013932375564,0.0,0.0,0.0,0.0,0.0,0.0,0.0,0.0,0.0,0.0,0.0,0.0,0.0,0.0,0.0,0.0,0.0,0.0,0.0,0.0,0.0,0.0,0.0,0.0,0.0,0.0,0.0,0.0,0.0,0.0,0.0,0.0,0.0,0.0,0.0,0.0,0.0,0.0,0.0,0.0,0.0,0.0,0.0,0.0,0.0,0.0,0.0,0.0,0.0,0.0,0.0,0.0,0.0,0.0,0.0,0.0,0.0,0.0,0.0,0.0
0.23474454000150288,0.3388770514106771,0.6573987549837907,0.659399971102906,0.637296294749494,0.6270534227531948,0.42168445384451425,0.12613439850211247,-0.09316664445018706,-0.17476734768299923,-0.1666847370362671,-0.1139198599998338,-0.04796073947920971,0.03420824170559861,0.0906166252237868,0.12878347666249512,0.1457295944434931,0.14897294715341147,0.14753046245694368,0.15341769860611743,0.17265072529650818,0.18125109061449962,0.19573104799579236,0.19211037601769043,0.17790131684899177,0.16211483983264907,0.1567604002571007,0.1603494533022713,0.16539391944194443,0.16590460512867214,0.15589148984540915,0.1578577903467485,0.15531406305292544,0.15276570325971273,0.1442195156103232,0.14017810590583774,0.14064554476751467,0.13962645102194285,0.13112474026798743,0.1301392581367476,0.11867506466285235,0.10873032370533904,0.10480416711774686,0.10689611992389166,0.10750674449657899,0.1126332582623293,0.09527921114117176,0.08543572347617209,0.07260187061139688,0.06127317797264469,0.0544451202503262,0.05211349031689222,0.05127443336712249,0.04892383402834515,0.028560131021407028,0.017172462502998177,0.01775482021259444,0.027302359123219416,0.020314829543271462,0.011783413872296788,0.010700442031554172,-0.005435257221500815,-0.009635213672469608,-0.013902321634426097,-0.021240433718935674,-0.033152394090973536,-0.02564433773171752,-0.030207696008199766,-0.021343330486040084,-0.005042675246471332,-0.0022920140146796704,0.0034150416891706894,0.013588220825897465,0.031236923007144892,0.05937047990345311,0.0650055615759086,0.05565010983614185,0.06280674508453458,0.08948374267625547,0.107195621686014,0.11745020829050505,0.11725572951021045,0.1006204496625006,0.08254767495058753,0.09003771028371468,0.08710356333928311,0.09474592519547023,0.10097192143986822,0.09528789165647804,0.08669561100814788,0.076697939588093,0.07279605491561325,0.07949137556824085,0.07728995252667438,0.06469369202715397,0.058200366568576425,0.04731304611274948,0.04402982551017237,0.03935293488162441,0.028783447376862364,0.009321927107003561,0.01846036286887189,0.03670256326032796,0.038553493673278365,0.04050919231579179,0.03657018873794443,0.026735560847990832,0.0245013932375564,0.02236800865597317,0.014335295071641952,0.016898344503444497,0.010559671868948604,0.008814837566768286,0.013161847388878765,0.014600848970822982,0.019128801399256226,0.023744464400379396,0.02244712660431657,0.02723221063128916,0.01560220916708193,0.002551671887300123,7.56950044330823e-05,0.014170611068471187,0.0508327522509297,0.06206962173301071,0.026882847600784132,-0.030735620626740488,-0.032805209707533596,-0.001821504159947296,0.0007311471156799782,0.007848895002106247,0.004537879493235802,0.0027985804071269708,0.008632703968300848,0.004046938791817438,0.008540123480090547,0.016116385058246026,0.008782306042512839,0.0030372060659984226,0.009381609946140205,0.014321023697786282,0.02535653459222427,0.024494466953029266,0.02973352374594211,0.02307978003953015,0.02253166765958064,0.028091250320561326,0.027762977270322165,0.03354616091702067,0.051441223949788444,0.061953729984358386,0.0935789926634619,0.12982138408013216,0.1526851207064041,0.16366971034584654,0.14777733239004046,0.16199435873169238,0.16582672018457567,0.1427745412072291,0.1423233770701281,0.1389736828692949,0.1342195811524954,0.13255387505115104,0.1294705702425678,0.12646176053881628,0.1250188923991158,0.12213371679577824,0.1162970473326884,0.11049815012325198,0.10172695889149828,0.10796848303519518,0.12321221970075696,0.13694806301407803,0.15066279284823375,0.15084562707563492,0.159977535679567,0.17804341852465555,0.1990286246837083,0.2529101184372788,0.36516480574469234,0.6212558370560799,0.625244776940327,0.6290551813342289,0.5996668120040575,0.4380700254946402,0.15622907174333023,-0.06742865207276792,-0.17295186027866907,-0.1693684968750484,-0.1346757108334621,-0.0778689257206558,-0.009430458636880861,0.027171640892786113,0.0619549178125512,0.10394115304392679,0.1321580632131374,0.15412691203530612,0.16387111290092565,0.17340956127834753,0.1872618946501844,0.18145281665657834,0.1829954773133864,0.1829096139475436,0.1767131120867034,0.16742138134062395,0.15954863547953826,0.1606076266188422,0.16461311959643993,0.15658094985589277,0.15002019656982796,0.15693946828008856,0.16385193208494084,0.17076715991962388,0.1686957781035069,0.1681434995586136,0.16161894101565802,0.15212769257010086,0.1426745362226978,0.1362634933357416,0.13889724735091383,0.14158092313207993,0.14281738968704336,0.14710755902313155,0.13795600089623447,0.1303599917711806,0.12431924107244463,0.12133249415057733,0.10340193432146981,0.10501820864976544,0.11118175223128289,0.11439091370097228,0.08314848216846345,0.048943559282285415,0.041765143222521395,0.05860885747868943,0.05147948493354318,0.048865589453330985,0.03876390890393308,0.03616531589191141,0.03356517331375927,0.0,0.0,0.0,0.0,0.0,0.0,0.0,0.0,0.0,0.0,0.0,0.0,0.0,0.0,0.0,0.0,0.0,0.0,0.0,0.0,0.0,0.0,0.0,0.0,0.0,0.0,0.0,0.0,0.0,0.0,0.0,0.0,0.0,0.0,0.0,0.0,0.0,0.0,0.0,0.0,0.0,0.0,0.0,0.0,0.0,0.0,0.0,0.0,0.0,0.0,0.0,0.0,0.0,0.0,0.0,0.0,0.0,0.0,0.0,0.0
0.1990286246837083,0.2529101184372788,0.36516480574469234,0.6212558370560799,0.625244776940327,0.6290551813342289,0.5996668120040575,0.4380700254946402,0.15622907174333023,-0.06742865207276792,-0.17295186027866907,-0.1693684968750484,-0.1346757108334621,-0.0778689257206558,-0.009430458636880861,0.027171640892786113,0.0619549178125512,0.10394115304392679,0.1321580632131374,0.15412691203530612,0.16387111290092565,0.17340956127834753,0.1872618946501844,0.18145281665657834,0.1829954773133864,0.1829096139475436,0.1767131120867034,0.16742138134062395,0.15954863547953826,0.1606076266188422,0.16461311959643993,0.15658094985589277,0.15002019656982796,0.15693946828008856,0.16385193208494084,0.17076715991962388,0.1686957781035069,0.1681434995586136,0.16161894101565802,0.15212769257010086,0.1426745362226978,0.1362634933357416,0.13889724735091383,0.14158092313207993,0.14281738968704336,0.14710755902313155,0.13795600089623447,0.1303599917711806,0.12431924107244463,0.12133249415057733,0.10340193432146981,0.10501820864976544,0.11118175223128289,0.11439091370097228,0.08314848216846345,0.048943559282285415,0.041765143222521395,0.05860885747868943,0.05147948493354318,0.048865589453330985,0.03876390890393308,0.03616531589191141,0.03356517331375927,0.032456789595600125,0.014837364899236653,-0.002803245198672764,-0.011473697938468946,-0.014179886060478396,-0.013926612303723442,-0.00471920596184102,-0.009055740094963134,-0.010441958561746876,-0.01787743626813437,-0.020864815695550085,-0.023901918229322493,-0.02998489537125403,-0.03011012613263583,-0.021269891863838514,-0.015450490713599553,0.005357554329769493,0.03217080900594588,0.05450612454080027,0.07837675629254272,0.09929787300651602,0.10828518836617669,0.10685173364786087,0.11000718823627732,0.12226288317522203,0.12563428358202572,0.13063031005426706,0.14925894274414184,0.16503344185763158,0.18096226174445854,0.1805570911486812,0.1713237176196086,0.16076702592109401,0.15639104419840263,0.1597002458575303,0.16469988371907715,0.1578959734722393,0.1587868372795631,0.15537656557699372,0.15216501985267436,0.15065190925985036,0.1553355575787378,0.1632150966998317,0.1637904432056646,0.16005788713759994,0.15651258731082013,0.16664702860728153,0.16796040792116543,0.17844265751445335,0.18308973987431876,0.1848929779870666,0.18084402848616288,0.18293050080053297,0.18664253515257556,0.19496779574235995,0.19289676084486054,0.19841206386884158,0.19200318058838964,0.19015110014211054,0.1913395989402878,0.1970508780897742,0.20276743109528803,0.21596826801543662,0.21413763055097293,0.21824962461632333,0.21478446773895754,0.2112169143627116,0.21802002046115254,0.2681611018137999,0.34361700141488266,0.6513163803583624,0.6543410695398614,0.6330994539621448,0.48557627678371895,0.19073625287170762,-0.049004859608942915,-0.1677038392437306,-0.1728975077322027,-0.15308989211506527,-0.11878483241597272,-0.08347100057089839,-0.035131092614142045,0.05175731469936535,0.12623590804070903,0.17783768389734428,0.20209375848132585,0.23202655196716254,0.2526674668274526,0.2460473699499645,0.2481846230223904,0.24260728708434978,0.23233812269080123,0.23239617916854746,0.22480621418100896,0.2125874515751996,0.20775611752327192,0.19383330846545674,0.19483065066434066,0.1987662957911294,0.20265554771998487,0.19601427786341546,0.18935297252068015,0.18268332383740385,0.17001732629020924,0.16336231365151918,0.15372914144263572,0.1471247256336422,0.15705365217908945,0.15502851508092172,0.150053316223696,0.14213315599318424,0.13127238450857717,0.1294721430315652,0.1277372882974271,0.12007140513279628,0.10797587830803944,0.09445117996253258,0.08099755463022525,0.07661321321934195,0.06780064575980994,0.050060085571700046,0.050384869218588056,0.04927776345653875,0.04073847265158526,0.036762707493362884,0.0268506590886195,0.015499211990914953,-0.006292073033800809,-0.0100315195647641,-0.00771842203721658,-0.0038526832618665627,-0.011931599155538477,-0.012458969657378175,-0.015931215725310584,-0.001350132468409383,0.004293991236627255,0.008503812474489406,0.009783840503701442,0.020135731598039823,0.021567338591379725,0.029079543611707174,0.03517780505979123,0.04736431319903218,0.059643892869490706,0.07052019526776654,0.08149594882306477,0.08657509073343964,0.09025896479944588,0.10004785739825446,0.09044847363944387,0.08845608880452865,0.08207364505574667,0.08029927043938101,0.0726347421950353,0.0665776887783804,0.059127561389131576,0.05328222924270006,0.05053957819065535,0.04489878904324601,0.037857228543004454,0.03691078984265766,0.03305861182240562,0.03229652606884858,0.02112425843707351,0.016035127820235858,0.023024533407954424,0.025592478323684862,0.020736040102530193,0.020449045577551356,0.02022865291522448,0.017071605762832693,0.0004761079942199257,-0.0040672164499599706,-0.0025611882563269877,0.001991133726131442,0.0005881830571724524,0.0022246360533039124,0.0,0.0,0.0,0.0,0.0,0.0,0.0,0.0,0.0,0.0,0.0,0.0,0.0,0.0,0.0,0.0,0.0,0.0,0.0,0.0,0.0,0.0,0.0,0.0,0.0,0.0,0.0,0.0,0.0,0.0,0.0,0.0,0.0,0.0,0.0,0.0,0.0,0.0,0.0,0.0,0.0,0.0,0.0,0.0,0.0,0.0,0.0,0.0,0.0,0.0,0.0,0.0,0.0,0.0,0.0,0.0,0.0,0.0,0.0,0.0
0.2681611018137999,0.34361700141488266,0.6513163803583624,0.6543410695398614,0.6330994539621448,0.48557627678371895,0.19073625287170762,-0.049004859608942915,-0.1677038392437306,-0.1728975077322027,-0.15308989211506527,-0.11878483241597272,-0.08347100057089839,-0.035131092614142045,0.05175731469936535,0.12623590804070903,0.17783768389734428,0.20209375848132585,0.23202655196716254,0.2526674668274526,0.2460473699499645,0.2481846230223904,0.24260728708434978,0.23233812269080123,0.23239617916854746,0.22480621418100896,0.2125874515751996,0.20775611752327192,0.19383330846545674,0.19483065066434066,0.1987662957911294,0.20265554771998487,0.19601427786341546,0.18935297252068015,0.18268332383740385,0.17001732629020924,0.16336231365151918,0.15372914144263572,0.1471247256336422,0.15705365217908945,0.15502851508092172,0.150053316223696,0.14213315599318424,0.13127238450857717,0.1294721430315652,0.1277372882974271,0.12007140513279628,0.10797587830803944,0.09445117996253258,0.08099755463022525,0.07661321321934195,0.06780064575980994,0.050060085571700046,0.050384869218588056,0.04927776345653875,0.04073847265158526,0.036762707493362884,0.0268506590886195,0.015499211990914953,-0.006292073033800809,-0.0100315195647641,-0.00771842203721658,-0.0038526832618665627,-0.011931599155538477,-0.012458969657378175,-0.015931215725310584,-0.001350132468409383,0.004293991236627255,0.008503812474489406,0.009783840503701442,0.020135731598039823,0.021567338591379725,0.029079543611707174,0.03517780505979123,0.04736431319903218,0.059643892869490706,0.07052019526776654,0.08149594882306477,0.08657509073343964,0.09025896479944588,0.10004785739825446,0.09044847363944387,0.08845608880452865,0.08207364505574667,0.08029927043938101,0.0726347421950353,0.0665776887783804,0.059127561389131576,0.05328222924270006,0.05053957819065535,0.04489878904324601,0.037857228543004454,0.03691078984265766,0.03305861182240562,0.03229652606884858,0.02112425843707351,0.016035127820235858,0.023024533407954424,0.025592478323684862,0.020736040102530193,0.020449045577551356,0.02022865291522448,0.017071605762832693,0.0004761079942199257,-0.0040672164499599706,-0.0025611882563269877,0.001991133726131442,0.0005881830571724524,0.0022246360533039124,0.0008982888297688971,-0.007893385895334629,-0.0031582285527589748,0.0016038525995999504,0.0033910634178032167,0.0007012894646839385,-0.0049682252001719005,-0.00912086457155581,-0.013258291567004954,-0.0038844253615728953,0.007003383064791596,-9.028687762558025e-05,-0.0011699467404405308,-0.005233229470784675,0.001217659019674846,0.004686630907441637,0.0036750940890037153,0.005682559383904311,0.012209768332076675,0.00676118134823772,0.002834952318961763,-0.002567363661467844,-0.004945787043354744,-0.008798220733664274,-0.011123659159418382,-0.008920260916669198,0.0023145598721861964,0.010587671523153321,0.0039059307794384298,0.0062686468707288095,0.0071822917982541255,0.011150183480359314,0.01517716529375553,0.002770835329922114,0.01142747393177004,0.005158649012321359,0.009463068114661216,0.003349093481546559,0.007816296369372134,0.01537016449440149,0.026014585121591077,0.024756491404725488,0.02659644094536262,0.03453736575432383,0.03058643669573667,0.04474065918001814,0.04700937664400397,0.044893901972107686,0.0503943761799645,0.06051383855335029,0.07225507640616004,0.09761745174344558,0.12910402485642233,0.15171892931887246,0.439905384309198,0.1673350595015061,0.16483236231159465,0.16544944802238568,0.15268549800282527,0.14303199634738822,0.139482474188745,0.13303224569130445,0.13267218031952419,0.12339747876007402,0.1141976819552815,0.10956265068197542,0.09448573429012068,0.08095411338505788,0.07645543296535122,0.0914763087110679,0.11100828268251631,0.1140436886543213,0.12156556168867286,0.12606229983465383,0.14701607238216763,0.1574180988025353,0.1812482461719041,0.254483096284207,0.540571781405116,0.5445992496554818,0.5484859883833488,0.5522084694459437,0.5557404222705512,0.5590528152421089,0.24567972785007003,0.00700505100830479,-0.131512357920482,-0.17290774339350445,-0.1591957370708828,-0.12037704256883534,-0.053444109935789935,0.016127979804205685,0.06886797372168743,0.11379860504195613,0.14194600993802473,0.15183419422005562,0.14948489259833628,0.14541814379028795,0.1636504286231833,0.16671030406614343,0.17261395469943924,0.17838110338733207,0.18253029765034479,0.18657856855555313,0.19204203451854465,0.18693869152774964,0.18478026670401987,0.19157911384457468,0.18935165922874092,0.1841083748568352,0.18785753687501783,0.19161087272308563,0.18337979510108127,0.1781691377233127,0.17598594014476293,0.17383697562265668,0.17022782521055266,0.16216351305109672,0.15414665077798326,0.1476796637552716,0.13976514343566246,0.14540119558595696,0.14659209717447033,0.15383546495820388,0.14613474048693922,0.13098666292779715,0.1248853671304058,0.11283089076434479,0.10381765068891725,0.0978413732527628,0.09039820253816286,0.0,0.0,0.0,0.0,0.0,0.0,0.0,0.0,0.0,0.0,0.0,0.0,0.0,0.0,0.0,0.0,0.0,0.0,0.0,0.0,0.0,0.0,0.0,0.0,0.0,0.0,0.0,0.0,0.0,0.0,0.0,0.0,0.0,0.0,0.0,0.0,0.0,0.0,0.0,0.0,0.0,0.0,0.0,0.0,0.0,0.0,0.0,0.0,0.0,0.0,0.0,0.0,0.0,0.0,0.0,0.0,0.0,0.0,0.0,0.0
0.12910402485642233,0.15171892931887246,0.439905384309198,0.1673350595015061,0.16483236231159465,0.16544944802238568,0.15268549800282527,0.14303199634738822,0.139482474188745,0.13303224569130445,0.13267218031952419,0.12339747876007402,0.1141976819552815,0.10956265068197542,0.09448573429012068,0.08095411338505788,0.07645543296535122,0.0914763087110679,0.11100828268251631,0.1140436886543213,0.12156556168867286,0.12606229983465383,0.14701607238216763,0.1574180988025353,0.1812482461719041,0.254483096284207,0.540571781405116,0.5445992496554818,0.5484859883833488,0.5522084694459437,0.5557404222705512,0.5590528152421089,0.24567972785007003,0.00700505100830479,-0.131512357920482,-0.17290774339350445,-0.1591957370708828,-0.12037704256883534,-0.053444109935789935,0.016127979804205685,0.06886797372168743,0.11379860504195613,0.14194600993802473,0.15183419422005562,0.14948489259833628,0.14541814379028795,0.1636504286231833,0.16671030406614343,0.17261395469943924,0.17838110338733207,0.18253029765034479,0.18657856855555313,0.19204203451854465,0.18693869152774964,0.18478026670401987,0.19157911384457468,0.18935165922874092,0.1841083748568352,0.18785753687501783,0.19161087272308563,0.18337979510108127,0.1781691377233127,0.17598594014476293,0.17383697562265668,0.17022782521055266,0.16216351305109672,0.15414665077798326,0.1476796637552716,0.13976514343566246,0.14540119558595696,0.14659209717447033,0.15383546495820388,0.14613474048693922,0.13098666292779715,0.1248853671304058,0.11283089076434479,0.10381765068891725,0.0978413732527628,0.09039820253816286,0.07248473024242774,0.06509085059255393,0.05771265314515291,0.05634246698896769,0.048976079937056244,0.04760400170670076,0.041721181244259546,0.038818582188501795,0.031390082311941105,0.02842593028056449,0.008922463289248589,0.002865259088406659,-0.0032510932388778026,-0.0019363907713274488,-0.002196686720191695,-0.008538787161491935,-0.013471787677731597,-0.014003035844738668,-0.01763641350075634,-0.02737540901751781,-0.03272464577315924,-0.0246858342079951,-0.025751018167725213,-0.020917703192926143,-0.007178450285728108,-0.0010197737049123514,0.02456343829853045,0.03658888531071373,0.047064775881607845,0.05150257063037218,0.054411621208496484,0.05880133402858247,0.07068021889719578,0.08105961435388248,0.0734520669069196,0.07186128636945582,0.0822943625818859,0.09276177336575352,0.098772023700964,0.10783065656683546,0.09894865428790371,0.09762677954250495,0.10087123347103999,0.09968897817587231,0.09558428548544275,0.0870615533312316,0.07862345262743162,0.08077096988460859,0.0860084457836461,0.0853401294245433,0.07426890304317542,0.0752916012433996,0.06591405550350958,0.06563297717277121,0.05795224260533441,0.06086821768926703,0.05038572222244537,0.043000840264600854,0.0432119021385743,0.04651889680679557,0.040923158542009105,0.027922978556789834,0.03301144706447926,0.04268963378661739,0.043458443387509,0.04431388297381421,0.03325611419548691,0.028278831653765133,0.029379310956896734,0.023057496784656854,0.016808815084755086,0.010630137887242489,-0.00298018545208007,-0.0030297919334371175,0.007478960944005517,0.013546501703036083,0.021168849636127467,0.015346328138754813,0.01107290928284428,0.002346860244191827,-0.0033364176316381705,0.01051659162282704,0.012409713701616986,0.00533953941460686,-0.0001989638467218382,-0.002708981744794234,-0.000693681040470284,-0.004653472949623708,-0.002593386897905466,-0.002013950669490668,-0.004416694772659288,-0.0098032706643428,-0.0076770961332247945,-0.007036598095729974,-0.0018825968838010665,0.004786629291228674,-0.0005248330175146976,-0.004318542121422293,-0.005093508281028204,0.001651043956705027,-0.0005792542363878001,-0.004283776327132255,-0.006460903931306437,0.00039045147216734466,0.001276676299716197,-0.0007995922720708232,0.00766209063225848,-0.00332869820559138,-0.000775535820901207,0.0018279974702943504,0.013483710918387716,0.01020027466101527,0.006978172294167573,0.011319397782287143,0.018728408390675504,0.015711478431435607,0.006771041287047722,0.005407578138809643,-0.0003731550297813658,0.007428325247580324,0.013818407914159251,0.011301883401768707,0.007380350310531544,0.01555410163529372,0.016330263496380837,0.017210263312239567,0.021196383671894196,0.022292694756842996,0.02950003802701535,0.03532257849248252,0.03076464593709088,0.03682414805249309,0.0430053964603785,0.058308459100150485,0.07373693617181099,0.08779257496324105,0.0944776908995361,0.08929384816895182,0.10373464399612788,0.10930572009506558,0.11200501720534983,0.11633024181193007,0.1267785403746697,0.13284960044187374,0.14653779155966945,0.14084493814927332,0.12626432509381774,0.12228665940795398,0.12890607634625362,0.12512047156550202,0.12142053843883661,0.11479915520272253,0.10974703162110748,0.10775492801009327,0.09681586641630917,0.10841327416675771,0.10504445911150205,0.11669213470580692,0.12534848194952336,0.13100135109424818,0.15913265699176246,0.0,0.0,0.0,0.0,0.0,0.0,0.0,0.0,0.0,0.0,0.0,0.0,0.0,0.0,0.0,0.0,0.0,0.0,0.0,0.0,0.0,0.0,0.0,0.0,0.0,0.0,0.0,0.0,0.0,0.0,0.0,0.0,0.0,0.0,0.0,0.0,0.0,0.0,0.0,0.0,0.0,0.0,0.0,0.0,0.0,0.0,0.0,0.0,0.0,0.0,0.0,0.0,0.0,0.0,0.0,0.0,0.0,0.0,0.0,0.0
0.21379042199399376,0.2762800185288972,0.38068498297691544,0.5989727350017242,0.5831962275523006,0.6092755127444829,0.6141983006290744,0.6189317675372717,0.20353182735449504,-0.020163545180632608,-0.13767218559487318,-0.15502656439834467,-0.13823358228493116,-0.1157932192740255,-0.060703877331410375,0.009056410151914144,0.07851475210536446,0.12669946127216633,0.1506347105342044,0.17883748152279066,0.19483337091463604,0.2076417725416381,0.19478766382210574,0.19228280528084818,0.19714610262744686,0.19889706152728212,0.18555451418918625,0.18562786693962727,0.1856343420035239,0.1825880475487048,0.1765015390233584,0.16588677120940054,0.17175013227157604,0.18060436324196993,0.17896134640200587,0.1788267523538854,0.17870816735876344,0.16811415718782352,0.16954552404418113,0.16801003640929218,0.157512741393202,0.15755253739836791,0.16063315619491123,0.16675598042044104,0.16692346319057572,0.1521372238410315,0.1463911770629775,0.14518441006679958,0.1425155903809634,0.12638390870774455,0.11778097314423534,0.10920369307332069,0.10064682760319452,0.09360427754962022,0.0820710018640485,0.06903961783275198,0.0650007710171686,0.05944913361615799,0.05537624235903914,0.06177208763360268,0.05463325297365871,0.04294914302534783,0.03870826472061569,0.025404843451028888,0.007528539231319576,0.01056451321649185,-0.0014893078485790727,-0.004647541000186351,0.0010803345930633962,0.005187467196713967,0.00916450148291572,-0.003494196525936341,-0.019300552109255766,-0.03226459722796081,-0.0378942180165543,-0.03619329865090718,-0.02266306017807396,-0.021295352076401198,-0.014088614504540133,-0.01903176998753337,-0.009121770850997248,-0.008343144087587382,0.005810769385354711,0.019854915824337235,0.03980015287047569,0.046162547547712415,0.05095141012595923,0.05267863052807568,0.04985584391987065,0.061990050238489594,0.06959611926494982,0.06818548809036695,0.07576456171578431,0.08634440059824575,0.10143412500216126,0.10454617075751851,0.10018809468816935,0.09436661861314678,0.08558952478083566,0.07686318678463262,0.07719230117445014,0.07158617656770765,0.0720481146889478,0.08608199615372544,0.09419696226839311,0.09189860118967197,0.08518984417171643,0.07707378752360515,0.08105091568744041,0.07162944685947852,0.06980751348848047,0.07258788625941393,0.06647517273743454,0.05746955798672086,0.05606995787369263,0.05327906047852536,0.05509615079195466,0.05102368242302936,0.05305914939056855,0.04920478697842011,0.054456944243313946,0.04781921879320645,0.027790876389787073,0.0228646982193502,0.02854019654103949,0.025319892030158136,0.019200854003620624,0.014680337452846418,0.017755189091019863,0.017925617243253665,0.022687994171134426,0.02154234979574319,0.021984853310609512,0.015015001211129586,0.0036296818767126105,-0.001675852758063563,0.0035948801888297734,0.004442582366979072,-0.005133936192220497,0.0018572423024831722,0.010417267037302015,0.0070469656382714145,0.009740555891825391,0.01249721673301072,-0.002681423414184836,-0.007303479104773916,-0.013368378761488272,-0.017877979716195303,-0.011834118400640267,-0.0057328732769496935,0.0019283032422774842,0.00665375246326389,0.008446869228820786,0.007311015112997103,0.012247635811705284,0.008263136849223151,0.0073582415802784275,0.0035373793314953084,0.005801819898639501,0.009655625856265572,0.00910314304379365,0.013145546282864014,0.009788336714912521,0.021529767452447304,0.02437772315920969,0.025833423096837525,0.022900150556108282,0.02607824919499842,0.0278716954583123,0.02528339857771312,0.03031300568673622,0.03396440933743485,0.037739164599078424,0.04013928126681976,0.0471650190701634,0.057317998412032764,0.08559616885664034,0.09600781069301843,0.09305234483229854,0.09022683850276837,0.10252758139702639,0.10745821892260493,0.117014701547933,0.13119494064206544,0.12750094661002512,0.13142408111524995,0.1519585033300604,0.15910583442946274,0.14986131486457568,0.14221501772183484,0.13616001406868222,0.12419022526729645,0.1272929586744497,0.11846489346266953,0.11869207957280832,0.11596684464848227,0.11327780013325918,0.11061360218441373,0.11696046692642936,0.1308062433335341,0.156636946481761,0.16594480744315754,0.18271034451626184,0.1949207408507359,0.22505508374332306,0.30159023679120184,0.40651161880904885,0.5278018915644965,0.6144498033901745,0.6979242885411766,0.7152108822833781,0.5672991248363729,0.300644689790733,0.05018199007746768,-0.08214919456863143,-0.13238060611793812,-0.12603836828509732,-0.324087001614659,-0.04867453650831124,0.02986251919199719,0.10051334874330844,0.15280851852742122,0.18227684326353014,0.21294044042290097,0.21633144568135979,0.21796968814978873,0.2208785993913173,0.21458333158631965,0.21710199931683688,0.21495820200151827,0.22016914489161038,0.22075595483079058,0.21073740872115154,0.1991280569453611,0.20843858573335786,0.21318867844167735,0.21339166757652042,0.21505857060483535,0.20470339759677814,0.19883283785035033,0.0,0.0,0.0,0.0,0.0,0.0,0.0,0.0,0.0,0.0,0.0,0.0,0.0,0.0,0.0,0.0,0.0,0.0,0.0,0.0,0.0,0.0,0.0,0.0,0.0,0.0,0.0,0.0,0.0,0.0,0.0,0.0,0.0,0.0,0.0,0.0,0.0,0.0,0.0,0.0,0.0,0.0,0.0,0.0,0.0,0.0,0.0,0.0,0.0,0.0,0.0,0.0,0.0,0.0,0.0,0.0,0.0,0.0,0.0,0.0
0.22505508374332306,0.30159023679120184,0.40651161880904885,0.5278018915644965,0.6144498033901745,0.6979242885411766,0.7152108822833781,0.5672991248363729,0.300644689790733,0.05018199007746768,-0.08214919456863143,-0.13238060611793812,-0.12603836828509732,-0.324087001614659,-0.04867453650831124,0.02986251919199719,0.10051334874330844,0.15280851852742122,0.18227684326353014,0.21294044042290097,0.21633144568135979,0.21796968814978873,0.2208785993913173,0.21458333158631965,0.21710199931683688,0.21495820200151827,0.22016914489161038,0.22075595483079058,0.21073740872115154,0.1991280569453611,0.20843858573335786,0.21318867844167735,0.21339166757652042,0.21505857060483535,0.20470339759677814,0.19883283785035033,0.19595630443414624,0.19308252852653565,0.18571957379833123,0.18887047894615713,0.1815448486439297,0.18024353636404405,0.18496992286826772,0.1867283613444767,0.17652228013093252,0.1633504266365093,0.14721253930247083,0.14910316798243675,0.13752705605610724,0.1334772717985654,0.13845025541115943,0.1284470883662848,0.12745816711817784,0.1279798036388993,0.11350954625346453,0.10353680881270938,0.09805449718128384,0.08955656090961914,0.07353583472773047,0.06198127056921257,0.04888519997606749,0.03573808321411894,0.028529199301295625,0.021250146756830565,0.01239144463206506,0.004942568905711439,0.01688981085960821,0.009231303473421479,-4.677113290913041e-05,-0.0019564033521709736,-0.007005519572347997,-0.021202797145000802,-0.02956061973284143,-0.03658529717130724,-0.034782829228681415,-0.034651992782435075,-0.03769013398505301,-0.028894742063321283,-0.009756290667681562,-0.001258448886533915,0.016107609642278836,0.02735801313475415,0.025007247899016236,0.027064354795717293,0.041040435567025295,0.06094926709901979,0.07030660699335788,0.08112197490002494,0.08890797394958701,0.08317805075859581,0.08643833737650204,0.0971995463459433,0.10347414393562568,0.09927286132066332,0.09660216501786985,0.08197333383715824,0.08538810763262966,0.0918571846106678,0.09988802557143267,0.10348856885105638,0.09666625334554314,0.08992456549443725,0.0862680697758416,0.08870088104503152,0.08822918100865396,0.08185745877309038,0.07858726410709671,0.06942348477971566,0.06036749288401882,0.06041968884772373,0.06058391854866411,0.05336341349226432,0.05075704270281019,0.04976653112717062,0.05939085173528053,0.04363809688337089,0.040000760549126206,0.03048267265645368,0.03158028082426145,0.02679675028532568,0.026629467439647343,0.02207974426502175,0.02364470003036123,0.03132352952361214,0.021120305692661597,0.02752676618311185,0.03404516035384866,0.027176975381996697,0.0204179072875079,0.01676570212321267,0.011719565222230261,0.012776119897448845,0.004936614973406279,-0.0013030732633650536,0.003053219064557367,0.006006151462066845,0.013552620880380624,0.013693241527539278,0.00942543710882842,0.008245626041430913,-0.007844511727249977,-0.011852705696892903,-0.02627563509771557,-0.007622593207356976,0.0021174224978862412,0.00744645819515554,0.017365612652584732,0.019880319241527496,0.011994050861483831,0.020703935531056445,0.017518595435300755,0.018937181020642874,0.006965937441728037,0.008601646948344715,0.007350112905580736,-0.0012854025214312746,-0.0038054212057039515,-0.00020753244132486128,-0.003986153541681486,0.013355574224399064,0.029325505587488022,0.030429554856495202,0.036166619685571194,0.028543252430218706,0.01656020368147098,0.022715270848413533,0.03201397538823991,0.03246110063385925,0.03455658573882784,0.044301144373093966,0.055697815615397626,0.05525097840858213,0.07145598953539119,0.08781729774262816,0.10583524720956797,0.11351255349468235,0.11684765569262628,0.12483780078735708,0.12848339881213416,0.1337811128715624,0.13322977411893816,0.1373237975144126,0.1490584932390916,0.16393004622491886,0.17143514520723202,0.16706841017527732,0.16581954438102897,0.1586824121178515,0.15464630129380666,0.1387047027883365,0.14534002920852981,0.14904649059656358,0.13931444755481812,0.14612508405616415,0.14397044163794168,0.15383215071915363,0.17269611825003553,0.1855499802117898,0.17888019683106254,0.1976601218999615,0.2313737689463173,0.25750666138907174,0.30003348528540474,0.393425453241434,0.5286613336408373,0.921671086645268,0.9275612743656535,0.7412589771370558,0.9386073199010414,0.3708048363641056,0.11308226490596497,-0.24702173434450958,-0.10818016387015011,-0.2397571406849641,-0.23685101520203058,-0.015470534277541406,0.07648799098069234,0.1470347878802382,0.19320280956212338,0.22252208807568036,0.23802262627808857,0.25173144077229703,0.2546787298836337,0.24989093508850227,0.25089103855190165,0.24270670618949103,0.2478565426126107,0.24386730711802138,0.23975796196650437,0.23854749917816553,0.2432537119833007,0.24189632361436036,0.2374907182955845,0.24054950939976932,0.24208818240766525,0.24361883413472005,0.2376542245992596,0.22270464662957903,0.2122760820431997,0.21537433595630512,0.0,0.0,0.0,0.0,0.0,0.0,0.0,0.0,0.0,0.0,0.0,0.0,0.0,0.0,0.0,0.0,0.0,0.0,0.0,0.0,0.0,0.0,0.0,0.0,0.0,0.0,0.0,0.0,0.0,0.0,0.0,0.0,0.0,0.0,0.0,0.0,0.0,0.0,0.0,0.0,0.0,0.0,0.0,0.0,0.0,0.0,0.0,0.0,0.0,0.0,0.0,0.0,0.0,0.0,0.0,0.0,0.0,0.0,0.0,0.0
0.25750666138907174,0.30003348528540474,0.393425453241434,0.5286613336408373,0.921671086645268,0.9275612743656535,0.7412589771370558,0.9386073199010414,0.3708048363641056,0.11308226490596497,-0.24702173434450958,-0.10818016387015011,-0.2397571406849641,-0.23685101520203058,-0.015470534277541406,0.07648799098069234,0.1470347878802382,0.19320280956212338,0.22252208807568036,0.23802262627808857,0.25173144077229703,0.2546787298836337,0.24989093508850227,0.25089103855190165,0.24270670618949103,0.2478565426126107,0.24386730711802138,0.23975796196650437,0.23854749917816553,0.2432537119833007,0.24189632361436036,0.2374907182955845,0.24054950939976932,0.24208818240766525,0.24361883413472005,0.2376542245992596,0.22270464662957903,0.2122760820431997,0.21537433595630512,0.20951070985793463,0.20818793379028605,0.1979133111733788,0.19818623446033204,0.2015107274690802,0.2018895108124202,0.20532179935779132,0.19681017036058887,0.18835055353584057,0.17694101728737258,0.16407775144434816,0.15125606113084392,0.15046824516442367,0.14521177928768148,0.13248057643630023,0.1257643884734505,0.12655480305114097,0.12434527719115847,0.12962426330576357,0.11688708665599244,0.09962030525847262,0.08231176633818901,0.07394788219670452,0.0655184008643312,0.0540114515361097,0.03791452354111107,0.03221140113753274,0.039888177202674874,0.03543671676216785,0.03384025400369931,0.024587154588778807,0.009163116785925627,0.004050593188235501,-0.010260514851618547,-0.00978938217891636,-0.009546089766935184,-0.2944835792839351,0.003705975801223406,-0.004275636953241936,-0.0019777167868978785,0.021114547135071,0.04252302355780645,0.05476635291406367,0.06985890345993453,0.06832132737301223,0.07716424704345602,0.07390824829563507,0.08706291381787122,0.10164651270223132,0.12067313143863262,0.1261607201199393,0.12112225363784776,0.12806601651890778,0.13500686997959732,0.14195653671459135,0.14742637665817984,0.1349301627016196,0.117974685124983,0.12356324909184331,0.12770918720715999,0.11542334061585667,0.12420498232814393,0.12556654829199174,0.11951392022512233,0.11655016609476096,0.11817962994232216,0.10491044489390068,0.09774172178038501,0.08767829235974021,0.08821981557184642,0.07987238199235322,0.07013602016646141,0.06351098382539183,0.06749655147233444,0.07609449452124552,0.06530999419090441,0.06513660936487582,0.06807537922588025,0.06212795409548628,0.06079033526096042,0.056562585205309455,0.04044477473382885,0.03043107090751696,0.028018873577114124,0.030206367259901175,0.02949253320068624,0.0333730788727905,0.03434668702651974,0.03690937535506483,0.030560112557832076,0.02129424777373526,0.019606040519230292,0.014994015675044858,0.011953477352053566,0.00148246515673806,0.003073025722857092,0.00022469284700501026,0.0049310517553114224,0.009689746111987455,0.008498082652020313,0.004351446017876306,0.006243929265748276,0.0021739755301097255,-0.0018637505617928546,-0.011872097060870175,-0.014357794523275364,-0.01232301064232504,-0.013267612298960934,-0.005194355249659503,0.004399324733817,0.0050171098913851285,0.019155790439106566,0.012323997918165618,0.026514342118576516,0.028734984908616694,0.02648552418779648,0.018267287824491944,-0.0019175919186465843,-0.004074568690569334,0.004298892880132221,0.005207901166647597,0.015150360746505576,0.023629771089100134,0.023148931364091303,0.016708336674528264,0.008808054104838267,0.012946193553974961,0.011127378633887497,0.006351796390046564,0.006118641409134498,0.008928950162642002,0.01778279170695756,0.026682064097509204,0.038626702831976105,0.044619008189437356,0.04315952594563255,0.04324639286350497,0.055377217634403064,0.06605438910115183,0.06777877012462785,0.06804777055411163,0.05636220863261369,0.0582150677891304,0.05410841786056669,0.045539665772977724,0.03100657245825941,0.031501987040502985,0.033525785912133656,0.022078000229606463,0.01365193576718072,0.0022454720185904175,0.004351736108414879,-0.00402772466907023,-0.0049001284492913326,-0.007266689802460296,-0.009630343704341654,-0.007493959343098794,-0.005357617380452857,0.011775253886466957,0.028907980613483687,0.0,0.0,0.0,0.0,0.0,0.0,0.0,0.0,0.0,0.0,0.0,0.0,0.0,0.0,0.0,0.0,0.0,0.0,0.0,0.0,0.0,0.0,0.0,0.0,0.0,0.0,0.0,0.0,0.0,0.0,0.0,0.0,0.0,0.0,0.0,0.0,0.0,0.0,0.0,0.0,0.0,0.0,0.0,0.0,0.0,0.0,0.0,0.0,0.0,0.0,0.0,0.0,0.0,0.0,0.0,0.0,0.0,0.0,0.0,0.0,0.0,0.0,0.0,0.0,0.0,0.0,0.0,0.0,0.0,0.0,0.0,0.0,0.0,0.0,0.0,0.0,0.0,0.0,0.0,0.0,0.0,0.0,0.0,0.0,0.0,0.0,0.0,0.0,0.0,0.0,0.0,0.0,0.0,0.0,0.0,0.0,0.0,0.0,0.0,0.0,0.0
-0.03379004286855366,-0.02360247257341517,-0.012101580672241851,-0.007847433103959354,-0.006545955868678879,-0.0024742194282943364,0.008663217589035594,0.0297339215739258,0.05646486544054176,0.06601744301650171,0.07696795673519252,0.08361450839755766,0.08168292499682905,0.08832026593478087,0.09782342168540585,0.09163585083271648,0.09690004386992968,0.09791473214883983,0.10611225313039518,0.10150603399629314,0.09267117200841084,0.07961359670602179,0.0851885347856957,0.08226696375348919,0.08227840603873635,0.07665843228694058,0.08112007229680378,0.08138566190134856,0.08317067178224795,0.07790906537214269,0.08416848085968777,0.07910097595811545,0.06413605808348227,0.06640881972426582,0.05878585146990694,0.05554860279584375,0.0509846887992451,0.04509388696255499,0.03930382987684553,0.0550354651127659,0.04658837221441897,0.0339549170239066,0.03427101237732505,0.03325398063059542,0.026617743009082907,0.03006959491726132,0.02218583783701032,0.012961043607824891,0.006677233011721812,-0.005236628263150706,-0.007073737369580924,0.0025921056986052933,0.01233478266398166,0.01929682248102708,0.012052032237873418,0.0020238830516964906,0.003492005843655441,0.002173820774048744,-0.0033602791682041068,-0.010255581767070612,-0.00708839538756363,0.004712955596921335,0.009439719889827943,0.008520443014689183,0.017664723617161315,0.024019917099240024,0.01330518050723063,-0.007338798731063046,-0.005065419136438887,0.007273096929872067,0.009684458161095288,-0.007826892890522522,-0.009557041068712767,-0.0026446286245503645,-0.00422416011471455,-1.1468150575354427e-05,-0.002856074657664979,0.0015265901373317104,0.015996487078244248,0.0234200289269396,0.020944648783572082,0.014286322840584885,0.006304702503032831,0.008428027936790032,0.016375297431423096,0.018724916975997607,0.016908200971742386,0.012356370195301381,0.017925441138891798,0.03933081835251843,0.06229427630996857,0.07110928279886543,0.04864088410337832,0.03059384214793663,0.058385115780838284,0.08774490895683405,0.08297179389752939,0.08405373579981541,0.0981317542639515,0.09378747775556655,0.10101077546062592,0.10837585669761013,0.11445319595562824,0.12352516597279486,0.11988002677223307,0.1277925016492596,0.1301215235689613,0.12257837682256746,0.12657967567099018,0.12783867068145063,0.12349285977936963,0.12067587192132048,0.12223638850336059,0.11816949725353736,0.121319435231112,0.13596118845542568,0.13923504573927023,0.1354147066988682,0.14019805503179175,0.15214497697721216,0.18409575810474801,0.22604016274597677,0.23083617391980593,0.218461815951726,0.303149221103128,0.44203732579837274,0.5379953694969692,0.5924299736847842,0.6353072705122821,0.9036663846305384,0.4406432773418562,0.1759027439840873,-0.2233418916731924,-0.0987698231159701,-0.2144366182945071,-0.11335438460407576,-0.0411449937407685,0.04791489780860347,0.11243783037522578,0.16387617590246878,0.18940387359932234,0.2004719138391254,0.21138656003999315,0.2250281930038932,0.23285125634341472,0.23202150865847096,0.23969708474170504,0.24732897870091589,0.26064808647920135,0.26681863695782626,0.2644284360342007,0.24349529532011668,0.24544766543978755,0.2588727083542755,0.24950659827315938,0.2344961761970779,0.23955569578611166,0.2461268272252201,0.25564358336989534,0.26811063640942107,0.27210650005858555,0.28048621802422374,0.28610993303165816,0.28183638537512123,0.2676634349595416,0.2621529629248601,0.26244386161275857,0.2699580426963209,0.2689787852444557,0.27663454927352027,0.2714934790399941,0.2635407563332,0.2756131957637164,0.28627488324409917,0.26980419652470833,0.24189327291158388,0.24251077123501147,0.23879052922322616,0.23928036298070254,0.2453863444989076,0.2228105985656867,0.2215125149294269,0.24860706832335333,0.27264915505216514,0.23934266787206368,0.2129232689554733,0.21621023283138302,0.22489413835405167,-0.06952941305580836,-0.06871607408228349,-0.06831177219246212,0.1830102354572853,0.17968486433064265,-0.06973427361386579,0.14879189100166548,-0.07302394412296669,0.15880503522778766,-0.07828338025176056,-0.08166297739423022,-0.08554028715052696,-0.08990403722885126,-0.09473482901012423,0.1913297235510138,0.1970825469370258,0.20532541016097586,0.2103808703445943,0.2151391181749938,0.2424828328839473,0.2581692167247456,0.2650851203703942,0.26325988358367036,0.25557774076589374,0.25634649027554424,0.2527385619730243,0.2233564437938515,0.21249442145605782,0.22588669302950498,0.2335636433101402,0.2441134985263968,0.2532703267998409,0.23106099510724473,0.2017792852924929,0.19400215399071138,0.19917468810672018,0.19588801424591906,0.19986312397414624,0.21396703912851803,0.1939381511721458,0.16406306327241407,0.15862417913045726,0.16620356110578066,0.1582451580521265,0.146179168703455,0.13143823034343022,0.11973857945608954,0.11393957527017377,0.10404698803287597,0.0,0.0,0.0,0.0,0.0,0.0,0.0,0.0,0.0,0.0,0.0,0.0,0.0,0.0,0.0,0.0,0.0,0.0,0.0,0.0,0.0,0.0,0.0,0.0,0.0,0.0,0.0,0.0,0.0,0.0,0.0,0.0,0.0,0.0,0.0,0.0,0.0,0.0,0.0,0.0,0.0,0.0,0.0,0.0,0.0,0.0,0.0,0.0,0.0,0.0,0.0,0.0,0.0,0.0,0.0,0.0,0.0,0.0,0.0,0.0,0.0,0.0,0.0
0.024019917099240024,0.01330518050723063,-0.007338798731063046,-0.005065419136438887,0.007273096929872067,0.009684458161095288,-0.007826892890522522,-0.009557041068712767,-0.0026446286245503645,-0.00422416011471455,-1.1468150575354427e-05,-0.002856074657664979,0.0015265901373317104,0.015996487078244248,0.0234200289269396,0.020944648783572082,0.014286322840584885,0.006304702503032831,0.008428027936790032,0.016375297431423096,0.018724916975997607,0.016908200971742386,0.012356370195301381,0.017925441138891798,0.03933081835251843,0.06229427630996857,0.07110928279886543,0.04864088410337832,0.03059384214793663,0.058385115780838284,0.08774490895683405,0.08297179389752939,0.08405373579981541,0.0981317542639515,0.09378747775556655,0.10101077546062592,0.10837585669761013,0.11445319595562824,0.12352516597279486,0.11988002677223307,0.1277925016492596,0.1301215235689613,0.12257837682256746,0.12657967567099018,0.12783867068145063,0.12349285977936963,0.12067587192132048,0.12223638850336059,0.11816949725353736,0.121319435231112,0.13596118845542568,0.13923504573927023,0.1354147066988682,0.14019805503179175,0.15214497697721216,0.18409575810474801,0.22604016274597677,0.23083617391980593,0.218461815951726,0.303149221103128,0.44203732579837274,0.5379953694969692,0.5924299736847842,0.6353072705122821,0.9036663846305384,0.4406432773418562,0.1759027439840873,-0.2233418916731924,-0.0987698231159701,-0.2144366182945071,-0.11335438460407576,-0.0411449937407685,0.04791489780860347,0.11243783037522578,0.16387617590246878,0.18940387359932234,0.2004719138391254,0.21138656003999315,0.2250281930038932,0.23285125634341472,0.23202150865847096,0.23969708474170504,0.24732897870091589,0.26064808647920135,0.26681863695782626,0.2644284360342007,0.24349529532011668,0.24544766543978755,0.2588727083542755,0.24950659827315938,0.2344961761970779,0.23955569578611166,0.2461268272252201,0.25564358336989534,0.26811063640942107,0.27210650005858555,0.28048621802422374,0.28610993303165816,0.28183638537512123,0.2676634349595416,0.2621529629248601,0.26244386161275857,0.2699580426963209,0.2689787852444557,0.27663454927352027,0.2714934790399941,0.2635407563332,0.2756131957637164,0.28627488324409917,0.26980419652470833,0.24189327291158388,0.24251077123501147,0.23879052922322616,0.23928036298070254,0.2453863444989076,0.2228105985656867,0.2215125149294269,0.24860706832335333,0.27264915505216514,0.23934266787206368,0.2129232689554733,0.21621023283138302,0.22489413835405167,-0.06952941305580836,-0.06871607408228349,-0.06831177219246212,0.1830102354572853,0.17968486433064265,-0.06973427361386579,0.14879189100166548,-0.07302394412296669,0.15880503522778766,-0.07828338025176056,-0.08166297739423022,-0.08554028715052696,-0.08990403722885126,-0.09473482901012423,0.1913297235510138,0.1970825469370258,0.20532541016097586,0.2103808703445943,0.2151391181749938,0.2424828328839473,0.2581692167247456,0.2650851203703942,0.26325988358367036,0.25557774076589374,0.25634649027554424,0.2527385619730243,0.2233564437938515,0.21249442145605782,0.22588669302950498,0.2335636433101402,0.2441134985263968,0.2532703267998409,0.23106099510724473,0.2017792852924929,0.19400215399071138,0.19917468810672018,0.19588801424591906,0.19986312397414624,0.21396703912851803,0.1939381511721458,0.16406306327241407,0.15862417913045726,0.16620356110578066,0.1582451580521265,0.146179168703455,0.13143823034343022,0.11973857945608954,0.11393957527017377,0.10404698803287597,0.10862821893495822,0.09769440784178512,0.08695567250393922,0.07926865191131327,0.08748632049994354,0.0973271657532333,0.09593734775505568,0.07189064998552731,0.06802855745677246,0.0843488947654971,0.07086529524309042,0.033287261727286216,0.007314253402859803,0.004367692473049087,0.023015974281174436,0.028980941594431597,0.04082439328681886,0.03140846230131387,0.02072270851731274,0.027328424739827856,0.028371609230233068,0.026704104185079423,0.01803705978251047,0.02521558328952197,0.03966627108222069,0.0199690627211347,-0.022456229377889353,-0.03477470171422255,-0.00699261840761321,0.013762658735962354,0.014639072979011054,0.01991535960462522,0.015311209834580857,0.016536525987373603,0.015023263280221195,0.006487624343928233,-0.007641823178728201,-0.004514893602008618,-0.0026958661970675267,-0.006467490999444517,0.001309388543693602,0.0020717925950181886,0.00867515547584777,0.02540624095610417,0.04655499920542559,0.030708502560438486,0.013571532314676005,-0.004854034582648254,-0.001716628526825852,0.02727035080319751,0.04497847587809027,0.011422962752622282,0.009436265347399404,0.04901716883252779,0.057334029336594955,0.06152266014740334,0.06729693740152452,0.06323310923736213,0.06361306788593354,0.07700594928442084,0.09627136095187157,0.10998419528136988,0.11957185359784553,0.10646764685624,0.07781026872952757,0.0,0.0,0.0,0.0,0.0,0.0,0.0,0.0,0.0,0.0,0.0,0.0,0.0,0.0,0.0,0.0,0.0,0.0,0.0,0.0,0.0,0.0,0.0,0.0,0.0,0.0,0.0,0.0,0.0,0.0,0.0,0.0,0.0,0.0,0.0,0.0,0.0,0.0,0.0,0.0,0.0,0.0,0.0,0.0,0.0,0.0,0.0,0.0,0.0,0.0,0.0,0.0,0.0,0.0,0.0,0.0,0.0,0.0,0.0,0.0,0.0,0.0,0.0
0.14019805503179175,0.15214497697721216,0.18409575810474801,0.22604016274597677,0.23083617391980593,0.218461815951726,0.303149221103128,0.44203732579837274,0.5379953694969692,0.5924299736847842,0.6353072705122821,0.9036663846305384,0.4406432773418562,0.1759027439840873,-0.2233418916731924,-0.0987698231159701,-0.2144366182945071,-0.11335438460407576,-0.0411449937407685,0.04791489780860347,0.11243783037522578,0.16387617590246878,0.18940387359932234,0.2004719138391254,0.21138656003999315,0.2250281930038932,0.23285125634341472,0.23202150865847096,0.23969708474170504,0.24732897870091589,0.26064808647920135,0.26681863695782626,0.2644284360342007,0.24349529532011668,0.24544766543978755,0.2588727083542755,0.24950659827315938,0.2344961761970779,0.23955569578611166,0.2461268272252201,0.25564358336989534,0.26811063640942107,0.27210650005858555,0.28048621802422374,0.28610993303165816,0.28183638537512123,0.2676634349595416,0.2621529629248601,0.26244386161275857,0.2699580426963209,0.2689787852444557,0.27663454927352027,0.2714934790399941,0.2635407563332,0.2756131957637164,0.28627488324409917,0.26980419652470833,0.24189327291158388,0.24251077123501147,0.23879052922322616,0.23928036298070254,0.2453863444989076,0.2228105985656867,0.2215125149294269,0.24860706832335333,0.27264915505216514,0.23934266787206368,0.2129232689554733,0.21621023283138302,0.22489413835405167,-0.06952941305580836,-0.06871607408228349,-0.06831177219246212,0.1830102354572853,0.17968486433064265,-0.06973427361386579,0.14879189100166548,-0.07302394412296669,0.15880503522778766,-0.07828338025176056,-0.08166297739423022,-0.08554028715052696,-0.08990403722885126,-0.09473482901012423,0.1913297235510138,0.1970825469370258,0.20532541016097586,0.2103808703445943,0.2151391181749938,0.2424828328839473,0.2581692167247456,0.2650851203703942,0.26325988358367036,0.25557774076589374,0.25634649027554424,0.2527385619730243,0.2233564437938515,0.21249442145605782,0.22588669302950498,0.2335636433101402,0.2441134985263968,0.2532703267998409,0.23106099510724473,0.2017792852924929,0.19400215399071138,0.19917468810672018,0.19588801424591906,0.19986312397414624,0.21396703912851803,0.1939381511721458,0.16406306327241407,0.15862417913045726,0.16620356110578066,0.1582451580521265,0.146179168703455,0.13143823034343022,0.11973857945608954,0.11393957527017377,0.10404698803287597,0.10862821893495822,0.09769440784178512,0.08695567250393922,0.07926865191131327,0.08748632049994354,0.0973271657532333,0.09593734775505568,0.07189064998552731,0.06802855745677246,0.0843488947654971,0.07086529524309042,0.033287261727286216,0.007314253402859803,0.004367692473049087,0.023015974281174436,0.028980941594431597,0.04082439328681886,0.03140846230131387,0.02072270851731274,0.027328424739827856,0.028371609230233068,0.026704104185079423,0.01803705978251047,0.02521558328952197,0.03966627108222069,0.0199690627211347,-0.022456229377889353,-0.03477470171422255,-0.00699261840761321,0.013762658735962354,0.014639072979011054,0.01991535960462522,0.015311209834580857,0.016536525987373603,0.015023263280221195,0.006487624343928233,-0.007641823178728201,-0.004514893602008618,-0.0026958661970675267,-0.006467490999444517,0.001309388543693602,0.0020717925950181886,0.00867515547584777,0.02540624095610417,0.04655499920542559,0.030708502560438486,0.013571532314676005,-0.004854034582648254,-0.001716628526825852,0.02727035080319751,0.04497847587809027,0.011422962752622282,0.009436265347399404,0.04901716883252779,0.057334029336594955,0.06152266014740334,0.06729693740152452,0.06323310923736213,0.06361306788593354,0.07700594928442084,0.09627136095187157,0.10998419528136988,0.11957185359784553,0.10646764685624,0.07781026872952757,0.09786228183533922,0.12806193743075853,0.13270321752560435,0.12606331494253792,0.11956253892398838,0.1189081282675208,0.10838507347692151,0.12083351160579262,0.13196863649947774,0.13464235822062984,0.10028427650763505,0.10029102013214757,0.12037211452010235,0.1348117033857556,0.14502741919216403,0.14101134008728916,0.15274189998002025,0.1816346270811004,0.19054531502582148,0.2280154512006762,0.30973903952791987,0.39571265260173244,0.5087681557322767,0.597473713998694,0.6575225796977321,0.917386952985349,0.5273126721900383,0.2613020951717029,0.030776483855231684,-0.20428846525450495,-0.10546805103590381,-0.19546851430274303,-0.1915320183151901,0.06344416035308638,0.1267747271998035,0.1584365040363752,0.15988546524055738,0.20541040464327126,0.2450537438578244,0.2674158483114521,0.2610958581626703,0.2632473175812102,0.25818239407083804,0.2559179194760332,0.25076022437650947,0.24415490992274452,0.24183065356031055,0.2480868019281575,0.2543685022233172,0.2592602113691729,0.2599170044145242,0.2592051002354028,0.26141752815489055,0.0,0.0,0.0,0.0,0.0,0.0,0.0,0.0,0.0,0.0,0.0,0.0,0.0,0.0,0.0,0.0,0.0,0.0,0.0,0.0,0.0,0.0,0.0,0.0,0.0,0.0,0.0,0.0,0.0,0.0,0.0,0.0,0.0,0.0,0.0,0.0,0.0,0.0,0.0,0.0,0.0,0.0,0.0,0.0,0.0,0.0,0.0,0.0,0.0,0.0,0.0,0.0,0.0,0.0,0.0,0.0,0.0,0.0,0.0,0.0,0.0,0.0,0.0
0.917386952985349,0.5273126721900383,0.2613020951717029,0.030776483855231684,-0.20428846525450495,-0.10546805103590381,-0.19546851430274303,-0.1915320183151901,0.06344416035308638,0.1267747271998035,0.1584365040363752,0.15988546524055738,0.20541040464327126,0.2450537438578244,0.2674158483114521,0.2610958581626703,0.2632473175812102,0.25818239407083804,0.2559179194760332,0.25076022437650947,0.24415490992274452,0.24183065356031055,0.2480868019281575,0.2543685022233172,0.2592602113691729,0.2599170044145242,0.2592051002354028,0.26141752815489055,0.2579930311819177,0.2589344756547133,0.27138721788220577,0.29392665930851136,0.2894240936398504,0.2678769760075313,0.2521343047110445,0.2621875186008556,0.2766116049258107,0.27683646006130735,0.27428090799823573,0.2803623885451859,0.27507854940061766,0.27270027722078216,0.28749708326918383,0.278040824057122,0.2671668700537318,0.27485298145988335,0.28394472180821745,0.2829987204947566,0.27627939754470887,0.28233085831040283,0.26542764552843234,0.2512516216602076,0.2512022217081881,0.26525274416014677,0.2605287007550855,0.24271324783423662,0.23748177954434022,0.23623383569616238,-0.056682347754955335,0.22984618018019684,0.224643516185693,-0.055182952336340386,-0.055557589142183464,-0.05641577433785157,-0.05777804377222554,0.20596889216981842,-0.06207005184420783,-0.06502019519859725,-0.06851482448448819,0.18736344242812125,-0.07712560677105537,-0.08222696618659461,-0.08784240633904433,-0.093949860350011,0.19938419042267852,0.20953019003726608,0.21357982493854938,0.2172828278266436,0.24066896382326192,0.2709203808983156,0.28093692335617365,0.2693230614766016,0.23753808091889245,0.2441643220099223,0.2592401153976818,0.2642274511651296,0.2677211138040203,0.26831779644434683,0.27460962383503884,0.2723376186228875,0.2600944206952149,0.22504642799467192,0.22433612956334736,0.2308463973189258,0.24030874201160038,0.21846320948605966,0.20245414564689584,0.1865815031204853,0.1837096526794157,0.1738555014510968,0.1627410185919757,0.15608730398099235,0.15104598359955987,0.15048034312086056,0.1401155926032912,0.13423839034497848,0.14285036396986905,0.1331091689477896,0.12072748758720435,0.11142056642622672,0.10233438817309849,0.09632681856151831,0.07911789126837669,0.06927368907413352,0.06822257878492509,0.060255260453574995,0.05393996356524153,0.05213217620049162,0.04626223648349598,0.05489431248691737,0.06660203029871838,0.05996197131079323,0.053537464802908254,0.04304177973181683,0.029900357495237555,0.008397874121629012,0.014234047067758276,0.024556040486058653,0.017939057390800407,0.0015203786574969045,-0.010422254373264071,-0.0007548878986436649,0.0019579009720500167,0.013423017838099597,0.006504057547114982,0.004048398954146401,0.0017692977845830578,-0.004620010478180344,0.0005872412517737609,0.00025172822369607544,0.012936873552437965,0.034356338581053136,0.034517739390926824,0.001993950698690723,-0.018946034116901704,-0.00831110219207908,0.00962024821593062,0.004857868276318655,0.0016797422757814653,0.0072265098268069015,0.010073371726231801,-0.011201277586162028,-0.006613592433837868,0.0009877253454258037,0.008748142654143629,0.009528791359986697,0.02189674016721362,0.024431929238102647,0.0242763898926765,0.025715811227167144,0.03446387098792939,0.04052490798946688,0.0381874188231451,0.043161347936873554,0.04687857829623913,0.05647998741288384,0.07767810837348599,0.09047921128748578,0.10345137851522701,0.11230924973234649,0.12133560755002204,0.1191034626803877,0.11132253954240706,0.11084251719809157,0.12194385790432123,0.13319725935259488,0.12888847941890508,0.13328969089097112,0.14639455156888645,0.15391495248356724,0.14156205269317176,0.13931765267533616,0.12432277391075912,0.12084537235026085,0.12744680175349113,0.1369753715249489,0.14941930399548561,0.15191314633044467,0.16015289924009485,0.17126837345203358,0.18810101905765134,0.2092070997102542,0.23742626865426986,0.2813095732269163,0.37368474417929676,0.4931099244959022,0.5781543078394786,0.6445025640550527,0.6707056113822323,0.573902414168698,0.3254967644528186,0.08682821902650512,-0.03503347402090066,-0.08725488420495738,-0.21125451497796177,-0.20712428291293777,-0.20340134278060895,0.10268605714100419,0.16134730255429844,0.1939706830504121,0.2191520569297079,0.2426333223504833,0.2530179613258834,0.25604556308730925,0.2517420116480656,0.2558411211464371,0.2597975764654209,0.26934588360313133,0.2645132689924993,0.2524597029464107,0.2460562733396956,0.25246036562038005,0.2545502644098948,0.2523403124127095,0.24869979964611622,0.24506864439377257,0.2614509518572777,0.2621533106441898,0.26003674319776515,0.2622485210664176,0.2616535152941224,0.2539715057463937,0.2492020643418915,0.25591538310967493,0.25840253752325254,0.25666253383201215,0.250693086272654,0.0,0.0,0.0,0.0,0.0,0.0,0.0,0.0,0.0,0.0,0.0,0.0,0.0,0.0,0.0,0.0,0.0,0.0,0.0,0.0,0.0,0.0,0.0,0.0,0.0,0.0,0.0,0.0,0.0,0.0,0.0,0.0,0.0,0.0,0.0,0.0,0.0,0.0,0.0,0.0,0.0,0.0,0.0,0.0,0.0,0.0,0.0,0.0,0.0,0.0,0.0,0.0,0.0,0.0,0.0,0.0,0.0,0.0,0.0,0.0,0.0,0.0,0.0
0.573902414168698,0.3254967644528186,0.08682821902650512,-0.03503347402090066,-0.08725488420495738,-0.21125451497796177,-0.20712428291293777,-0.20340134278060895,0.10268605714100419,0.16134730255429844,0.1939706830504121,0.2191520569297079,0.2426333223504833,0.2530179613258834,0.25604556308730925,0.2517420116480656,0.2558411211464371,0.2597975764654209,0.26934588360313133,0.2645132689924993,0.2524597029464107,0.2460562733396956,0.25246036562038005,0.2545502644098948,0.2523403124127095,0.24869979964611622,0.24506864439377257,0.2614509518572777,0.2621533106441898,0.26003674319776515,0.2622485210664176,0.2616535152941224,0.2539715057463937,0.2492020643418915,0.25591538310967493,0.25840253752325254,0.25666253383201215,0.250693086272654,0.25334361605785966,0.2531844203896503,0.2502094100085452,0.2444112297329613,0.24577804355877161,0.23573459278425468,0.23569147071549476,0.228499121119661,0.22699711998008645,0.21974603023927,0.2167269303351944,0.21221058962289652,0.20760724398312264,0.20861039833988793,0.19949086909990354,0.191652520227262,0.17936089784684275,0.17687413026993598,0.16703102829775243,0.1569473889060801,0.15516628394763754,0.1459521299929701,0.1378464383264319,-0.14908823600687224,0.13198878811099388,-0.1528562593038548,0.11885604249494686,0.11596511172352873,-0.16153018901612914,0.10324736139773441,-0.16933979313714093,0.10322886359759831,0.1041035924445312,0.1060820925730629,0.10919252650883232,0.11774685646323219,0.1289159485246613,0.14415441014345276,0.1577756540298359,0.16409237212198913,0.16741323770432667,0.17633043369561893,0.1851542056277247,0.18962202741240675,0.19403910738283314,0.19556915560167348,0.18851869187191597,0.1886149086318547,0.20872783566217984,0.21031459851443637,0.2062432402555927,0.19081532196268505,0.17546869388141542,0.16307159198844254,0.1564913749169554,0.15573836587803846,0.1493972253693233,0.14318915558147924,0.13855028162283176,0.1369160126559285,0.13972106509190887,0.13840270053734302,0.1315380321538369,0.1262721412819274,0.1097559111229789,0.10341423428738379,0.10296547402867788,0.09270259627264746,0.08548025275915401,0.07987153139435495,0.07159287261899921,0.07064141783690152,0.06559230000642936,0.06501383932787286,0.04891182739857664,0.05155991196543493,0.03582599461259127,0.03312700066409848,0.0234677151594345,0.021127398272808434,0.01182299219840798,0.009833534134874892,0.009444461716878082,0.02065037376421072,0.023455511200839583,0.016429442115802207,0.015278937705447465,0.004292266313323564,0.0006041506259522714,-0.0043566887087770675,-0.00345232371093336,-0.012394173028314534,-0.00262191634372536,-0.0012703471443515938,0.004513071062697401,0.011871785100496069,0.009380559034329843,0.004179527987498247,-0.0008755499157114306,-0.0015008274165795935,-0.0034091443036506756,-0.0037445375944308965,-0.006791270598078794,-0.005408370636103543,0.00040522998033115843,-0.002201877553378385,0.011049756765893412,0.01588405102918236,0.015158958688113629,0.016016683870274016,0.008462034523589583,0.002493278961578885,0.006680533155515494,0.003887920032977251,0.015538499984827567,0.017355792936016898,0.020765991920802584,0.03005465303411582,0.04093856834849461,0.04627815959906702,0.05035852408469763,0.05318019761723606,0.05474346421591151,0.06790133228761544,0.07980055594461714,0.09186865011324725,0.09410785046047836,0.09936969382318886,0.10622414617828188,0.11324067665419153,0.13041310351519916,0.13203192802039604,0.12523353010101776,0.14143150007388855,0.14920196067700203,0.1499668582285136,0.14086306294055836,0.13902023563999194,0.14157379238934334,0.13566168392545738,0.13841146378973465,0.13695969654163834,0.1427201252285413,0.14282793755410494,0.15012358819866536,0.16316571738214805,0.16623111438581467,0.16930173323964073,0.16664948646523503,0.17539520058869612,0.18980910837553397,0.21272922580768897,0.2612737201422823,0.3654126852789564,0.49227806733757284,0.5932907750217717,0.6655687766711695,0.7105114042677239,0.6238345195761614,0.37408404343987295,-0.14303083410603476,-0.13780591336942907,-0.09011322524118799,-0.12849664116064005,-0.12443166603770676,-0.12075480145007213,0.11105017812658563,0.178283105971287,0.20521909172232472,0.23187386171019722,0.25113448511155945,0.25303065166961336,0.25758110612865265,0.2533849073741226,0.2547458069632389,0.25597274907966794,0.2613701744025473,0.26952880361898,0.2833223806614138,0.27277677108061604,0.27932192541906425,0.27155281869969455,0.2594782202659118,0.25453365172909936,0.25387223698881667,0.25321771724429193,0.25543311449392986,0.2548115244551149,0.26421019609659874,0.26078235352770385,0.2702356408972291,0.2697206573517483,0.26209263143693184,0.2616303233517413,0.2626176423829694,0.255052859569575,0.254638913439606,0.259940146871945,0.26380718942261844,0.0,0.0,0.0,0.0,0.0,0.0,0.0,0.0,0.0,0.0,0.0,0.0,0.0,0.0,0.0,0.0,0.0,0.0,0.0,0.0,0.0,0.0,0.0,0.0,0.0,0.0,0.0,0.0,0.0,0.0,0.0,0.0,0.0,0.0,0.0,0.0,0.0,0.0,0.0,0.0,0.0,0.0,0.0,0.0,0.0,0.0,0.0,0.0,0.0,0.0,0.0,0.0,0.0,0.0,0.0,0.0,0.0,0.0,0.0,0.0,0.0,0.0,0.0
