0.6217897760514746,0.18859559736451223,-0.21460844601899004,-0.21417428944681074,-0.21430682103241178,-0.21501721774794308,-0.2162962974175566,0.07058080918729234,0.26073724513704644,0.3638459898346828,0.3879748564390805,0.39892889096257117,0.39194124699682403,0.3975280597622436,0.39167217780534175,0.38243171318977703,0.3666357817132129,0.34592317468836364,0.3524042388486079,0.34440991364932594,0.32678139070299983,0.29633882678318185,0.2899973087032776,0.2757043515940509,0.28235279779886857,0.27147188370870384,0.2511014481288365,0.23409156017874502,0.24131034626002884,0.24550888558031747,0.28038382799465633,0.30424905559366516,0.3251367878428644,0.3334352348259016,0.3580236823314193,0.3668329717727395,0.38553120652817435,0.3852533288435196,0.3884559551604515,0.35825086101272735,0.3363371449900707,0.30186147467088076,0.29651947570485043,0.30266234979302536,0.2737702899973712,0.24993055419320784,0.24717109303632082,0.22538341800419484,0.2310663828439526,0.22090141114477876,0.20289237301585672,0.1850420340593142,0.18657918332051948,0.19144670836148064,0.20283291454275643,0.1982633490654071,0.19375524635485494,0.18928622394105396,0.19445610592495974,0.20442900695555796,0.20795261916981514,0.222643138601364,0.22441529501606206,0.24531789448960356,0.26286729405355,0.30269450088615885,0.38561762015560014,0.5853807079673247,0.6998615323846503,0.6231666880396923,-0.30393331220903286,-0.30440384592845776,0.0,0.0,0.0,0.0,0.0,0.0,0.0,0.0,0.0,0.0,0.0,0.0,0.0,0.0,0.0,0.0,0.0,0.0,0.0,0.0,0.0,0.0,0.0,0.0,0.0,0.0,0.0,0.0,0.0,0.0,0.0,0.0,0.0,0.0,0.0,0.0,0.0,0.0,0.0,0.0,0.0,0.0,0.0,0.0,0.0,0.0,0.0,0.0,0.0,0.0,0.0,0.0,0.0,0.0,0.0,0.0,0.0,0.0,0.0,0.0,0.0,0.0,0.0,0.0,0.0,0.0,0.0,0.0,0.0,0.0,0.0,0.0,0.0,0.0,0.0,0.0,0.0,0.0
0.6998615323846503,0.6231666880396923,-0.30393331220903286,-0.30440384592845776,-0.1577383342692671,0.06550597056276519,0.17128938454745524,0.2093590049313526,0.2134224469353614,0.21558241642748863,0.22388261379542246,0.21749613547306784,0.19163358405998324,0.17358172583249548,0.16336070541518208,0.15778207440824688,0.15686429272411095,0.14779413090184498,0.1337962007377786,0.12130210017333123,0.10711958282168503,0.11211373415360529,0.09139073916917995,0.08185321275131206,0.051437222840701194,0.048271556005597134,0.043499338850266064,0.025905944757789155,0.003522880309020486,-0.0011837144240591528,-0.010655868604294428,-0.00403120987910807,0.013891845485638163,0.043126851862638,0.067648668586635,0.09709374028406961,0.10902092218059402,0.13231218588507151,0.1445253560498416,0.16331415971312135,0.15500799943443458,0.14848610095952527,0.130926488489461,0.12158369495224994,0.12367297306473513,0.1275780671623065,0.12688982833123325,0.12482164511468236,0.11977468393306226,0.1374151505823845,0.1360464245546052,0.13331411290720172,0.13403224200255032,0.12537168349586758,0.10572967678626598,0.10558008557188583,0.10246878049269852,0.10762221800356511,0.10820840384736036,0.10903729379246371,0.09406808931289588,0.09697918599024903,0.08408628163503315,0.08906681659246389,0.08465103357720215,0.08206143135876051,0.08770849777786688,0.08234050944213585,0.09482118115286155,0.10750180183049463,0.12197953698404743,0.11258535112969426,0.0,0.0,0.0,0.0,0.0,0.0,0.0,0.0,0.0,0.0,0.0,0.0,0.0,0.0,0.0,0.0,0.0,0.0,0.0,0.0,0.0,0.0,0.0,0.0,0.0,0.0,0.0,0.0,0.0,0.0,0.0,0.0,0.0,0.0,0.0,0.0,0.0,0.0,0.0,0.0,0.0,0.0,0.0,0.0,0.0,0.0,0.0,0.0,0.0,0.0,0.0,0.0,0.0,0.0,0.0,0.0,0.0,0.0,0.0,0.0,0.0,0.0,0.0,0.0,0.0,0.0,0.0,0.0,0.0,0.0,0.0,0.0,0.0,0.0,0.0,0.0,0.0,0.0
0.7354995609985969,0.4832581101645304,-0.09654135020504044,-0.3190901625841452,-0.3175404025334061,0.12142048045241208,0.1958902040836334,0.21865035668941285,0.22340946207810822,0.2037783868594871,0.20148275733217463,0.197300403703715,0.18323518667297153,0.18176336903636228,0.17526373346756483,0.15894505428638958,0.152073167862064,0.14664745235471507,0.1426858383479919,0.14501711086189856,0.14082685335065212,0.12692309953014894,0.10813249177137987,0.09409262550345472,0.09764828060876896,0.09154720255978362,0.08061389974500219,0.056841522353937114,0.04109234354830289,0.014131788335395377,0.01927571601781126,0.016439062229847336,0.016860268079132847,0.0349854175937305,0.04035235887993866,0.07146485510547552,0.11550286582435179,0.15002281791906882,0.17503463656801072,0.18413204660398272,0.1837387981495853,0.20112793391952538,0.21705956375622304,0.21870824209391782,0.22372082666860366,0.23210059353846885,0.22620721202097338,0.22208030464592726,0.22773905011771897,0.23355902860261857,0.24114171947675153,0.2296333585108883,0.20384077669315848,0.19102373265511072,0.2072139279193043,0.1930605686696379,0.17421654058760133,0.15548355079950144,0.1560971983697925,0.14557256565113405,0.157578456825085,0.1568168582218678,0.15129325734197224,0.15222008271734147,0.14514720548767535,0.15892802475481163,0.17269547459052,0.21850915883623145,0.36371279412919405,0.5377168245838456,0.6538912501719305,0.4748403018410758,0.0,0.0,0.0,0.0,0.0,0.0,0.0,0.0,0.0,0.0,0.0,0.0,0.0,0.0,0.0,0.0,0.0,0.0,0.0,0.0,0.0,0.0,0.0,0.0,0.0,0.0,0.0,0.0,0.0,0.0,0.0,0.0,0.0,0.0,0.0,0.0,0.0,0.0,0.0,0.0,0.0,0.0,0.0,0.0,0.0,0.0,0.0,0.0,0.0,0.0,0.0,0.0,0.0,0.0,0.0,0.0,0.0,0.0,0.0,0.0,0.0,0.0,0.0,0.0,0.0,0.0,0.0,0.0,0.0,0.0,0.0,0.0,0.0,0.0,0.0,0.0,0.0,0.0
0.6538912501719305,0.4748403018410758,-0.1694728314867067,-0.2526058669181944,-0.04081364328623002,0.09862965698774757,0.1448880412788238,0.1605258768231577,0.16801024246989468,0.16574947607071192,0.15215107542607406,0.13845261005204357,0.13749475126717794,0.13164408952741088,0.13373991641449307,0.12454361413228193,0.10406224687952012,0.09154860683134682,0.07257385213634895,0.061578209241780375,0.053755191031166924,0.03627868970762676,0.005945504045556441,-0.009974359974522588,-0.024307490046416566,-0.003367512121437885,0.00954885428278593,-0.011212302301125944,-0.03196202644355149,-0.009387122198916277,0.003596889298529517,0.02464533123752501,0.0601864709172569,0.07494802590557616,0.11705826584733767,0.14482878240641908,0.17270577148089847,0.1750381408781349,0.17910139928641525,0.17207361625651496,0.15396286629519126,0.14723043935133198,0.14065574184417554,0.1502831075245922,0.1504557403600638,0.13636630615487394,0.1224530691290719,0.11673816143968689,0.10960061484180736,0.12189226599928764,0.1135176263737613,0.1454239391114853,0.14543728746718554,0.16488044453205788,0.1909209538959696,0.20270622195720403,0.2050445014352313,0.17066578036096614,0.16853077501515282,0.17136759487729683,0.1775653076989851,0.15824646091000139,0.15029107898635422,0.14887796866706812,0.14758132267790047,0.1479939021441266,0.15170773028440823,0.15550250267427962,0.16096874402424027,0.14243053804844738,0.14959270383733492,0.14875849531928814,0.0,0.0,0.0,0.0,0.0,0.0,0.0,0.0,0.0,0.0,0.0,0.0,0.0,0.0,0.0,0.0,0.0,0.0,0.0,0.0,0.0,0.0,0.0,0.0,0.0,0.0,0.0,0.0,0.0,0.0,0.0,0.0,0.0,0.0,0.0,0.0,0.0,0.0,0.0,0.0,0.0,0.0,0.0,0.0,0.0,0.0,0.0,0.0,0.0,0.0,0.0,0.0,0.0,0.0,0.0,0.0,0.0,0.0,0.0,0.0,0.0,0.0,0.0,0.0,0.0,0.0,0.0,0.0,0.0,0.0,0.0,0.0,0.0,0.0,0.0,0.0,0.0,0.0
0.3991291953166881,0.6172097117061532,0.9633904756653369,0.5025891872537904,-0.08358781208605703,-0.3124156510338747,-0.3106292894186498,0.07894966516087229,0.1763128596791117,0.2060300290021275,0.2034142446027512,0.21019299803515834,0.20233439890953805,0.19750593237576836,0.19733544633300976,0.20665752626650533,0.2030401075004377,0.20093893090242038,0.19235464632931767,0.18051393684844497,0.19270046212197048,0.2000617897168483,0.19138701183431672,0.1731067085032611,0.1708968535119745,0.16071281582116706,0.13935932315962093,0.14373686363884594,0.14017527602735588,0.10943844343019679,0.10125563806454224,0.08035086938811768,0.06758283010598798,0.08541367372674338,0.10979320166652717,0.12629396362034773,0.14133817356954467,0.16455513914138384,0.19274256080928515,0.21147027836586652,0.2464037318377486,0.2478257636801632,0.26064587524414706,0.25920237620553843,0.2755713250942014,0.2921077451340782,0.2959768693661029,0.308023584007801,0.2961638309825661,0.3004858272001243,0.31937588224636704,0.3335763151414548,0.3206201229103919,0.3157776867800092,0.31101349581397175,0.3031020478611269,0.3160819491866719,0.3098357882306734,0.3019836251068542,0.30533238307637856,0.2909870489776064,0.2733553720495338,0.2844861347325067,0.28104521247001374,0.2982863236106119,0.30409955384615994,0.30165847371008825,0.3197969341640145,0.41782066647676086,0.4994591348188676,0.22786033057670083,-0.23021740898715237,0.0,0.0,0.0,0.0,0.0,0.0,0.0,0.0,0.0,0.0,0.0,0.0,0.0,0.0,0.0,0.0,0.0,0.0,0.0,0.0,0.0,0.0,0.0,0.0,0.0,0.0,0.0,0.0,0.0,0.0,0.0,0.0,0.0,0.0,0.0,0.0,0.0,0.0,0.0,0.0,0.0,0.0,0.0,0.0,0.0,0.0,0.0,0.0,0.0,0.0,0.0,0.0,0.0,0.0,0.0,0.0,0.0,0.0,0.0,0.0,0.0,0.0,0.0,0.0,0.0,0.0,0.0,0.0,0.0,0.0,0.0,0.0,0.0,0.0,0.0,0.0,0.0,0.0
0.4994591348188676,0.22786033057670083,-0.23021740898715237,-0.2140272180870961,-0.23041230241469912,-0.23125909005200349,-0.0016304138936049466,0.1024577921769246,0.2606798434946742,0.3335408940891888,0.32910014991504527,0.3307966894423469,0.3466864054204507,0.3431231101105866,0.3345747590781258,0.31626124157842117,0.3122703000347314,0.29055290603857714,0.2800052470291252,0.2710293562920779,0.2540258670869017,0.23543268310500465,0.22329030046633164,0.20959941254868905,0.1943789090677425,0.1776466317420946,0.16262717551154698,0.13971334661976423,0.13458211444772358,0.13120932330498972,0.1440435331901284,0.16828629736062145,0.2055538990877738,0.21896907882246872,0.25184667713970793,0.2849498000120801,0.32951368277836157,0.3390330839449264,0.30709767839654173,0.29465767328319065,0.2856763374885949,0.26732319172385427,0.27488220505454936,0.2554235692473266,0.250643992572272,0.2412921289824784,0.23538104269490448,0.2361110037922471,0.24347338033624522,0.24462745937064037,0.2315428982458891,0.2202460695432354,0.2155351502243258,0.21579176578896989,0.2210003266190984,0.22472871390632396,0.2173359787248814,0.20682253664203112,0.20760316677662904,0.22286457622974165,0.2878696852440471,0.48599617647551047,0.6327752460670003,0.5854360866851822,0.034403021101774144,-0.301826655495809,-0.29978882890587333,0.10947796163788984,0.21548645371460814,0.23478139596377787,0.24276655449986598,0.23144366852100112,0.0,0.0,0.0,0.0,0.0,0.0,0.0,0.0,0.0,0.0,0.0,0.0,0.0,0.0,0.0,0.0,0.0,0.0,0.0,0.0,0.0,0.0,0.0,0.0,0.0,0.0,0.0,0.0,0.0,0.0,0.0,0.0,0.0,0.0,0.0,0.0,0.0,0.0,0.0,0.0,0.0,0.0,0.0,0.0,0.0,0.0,0.0,0.0,0.0,0.0,0.0,0.0,0.0,0.0,0.0,0.0,0.0,0.0,0.0,0.0,0.0,0.0,0.0,0.0,0.0,0.0,0.0,0.0,0.0,0.0,0.0,0.0,0.0,0.0,0.0,0.0,0.0,0.0
0.6327752460670003,0.5854360866851822,0.034403021101774144,-0.301826655495809,-0.29978882890587333,0.10947796163788984,0.21548645371460814,0.23478139596377787,0.24276655449986598,0.23144366852100112,0.25055231547594137,0.2519952995648931,0.24060163663627038,0.23563384558284006,0.23710689159471804,0.2273920735561973,0.2385792441111532,0.23379102895458534,0.22105701250569645,0.20680174767067205,0.18782550672340134,0.1865893288549915,0.17262584971923076,0.1619787862015591,0.1338021532271054,0.12498820791046931,0.10346244836697648,0.11894673822239901,0.11691135752856903,0.12141525693936901,0.14368590208891535,0.19334628897716769,0.2415259937856401,0.3010540524690812,0.33503855405822985,0.3563058216076031,0.36324573995809717,0.37990821334745667,0.38543317816430245,0.3878281972978894,0.3870795936822201,0.39119106389967184,0.379294843092952,0.3834486748592339,0.38759252958530666,0.39651467366692517,0.39735894740060107,0.39811742176181714,0.3939492804683407,0.4265237308291264,0.45250329483949564,0.48789127651739006,0.5486887173642767,0.5257929399112028,-0.1614370687688216,-0.15938670577351824,-0.14812375506112457,-0.15653266035668467,-0.1557447415451094,-0.15536914929751053,0.1910572493130927,0.35430339068460076,0.43385137861460027,0.4602154553952162,0.4574922438301915,0.4401528902987583,0.44512032952914143,0.43553761782298933,0.4419078133109381,0.4402004694678773,0.43685631882920284,0.4238791299071128,0.0,0.0,0.0,0.0,0.0,0.0,0.0,0.0,0.0,0.0,0.0,0.0,0.0,0.0,0.0,0.0,0.0,0.0,0.0,0.0,0.0,0.0,0.0,0.0,0.0,0.0,0.0,0.0,0.0,0.0,0.0,0.0,0.0,0.0,0.0,0.0,0.0,0.0,0.0,0.0,0.0,0.0,0.0,0.0,0.0,0.0,0.0,0.0,0.0,0.0,0.0,0.0,0.0,0.0,0.0,0.0,0.0,0.0,0.0,0.0,0.0,0.0,0.0,0.0,0.0,0.0,0.0,0.0,0.0,0.0,0.0,0.0,0.0,0.0,0.0,0.0,0.0,0.0
0.5486887173642767,0.5257929399112028,-0.1614370687688216,-0.15938670577351824,-0.14812375506112457,-0.15653266035668467,-0.1557447415451094,-0.15536914929751053,0.1910572493130927,0.35430339068460076,0.43385137861460027,0.4602154553952162,0.4574922438301915,0.4401528902987583,0.44512032952914143,0.43553761782298933,0.4419078133109381,0.4402004694678773,0.43685631882920284,0.4238791299071128,0.4141207001845504,0.41882684519093744,0.4155601961368764,0.4139585412561895,0.4188460033081011,0.4109866968910453,0.41765465655173506,0.4212137102829754,0.4409144366353505,0.46873964460706485,0.5111047016449896,0.5391376552245828,0.5720798740339621,0.5794502917789285,0.6077503845437813,0.6232856032677481,0.6404742368743013,0.6641082825116637,0.7615271747138923,0.8300575963391698,0.33077180686854524,-0.1910509953832533,-0.1211671759720248,-0.14444362248555231,-0.19352417198780258,-0.02782178314840027,0.14899904162874794,0.31290904949083004,0.38213919050642337,0.40002012971289586,0.4082767588937903,0.41174313090093884,0.4152512572023784,0.42202722799261966,0.4288796069783975,0.4326148477303071,0.43003725942090837,0.4115335379170338,0.4220195558668754,0.41980055012583317,0.4064839365140789,0.3965059323120117,0.3978852721488594,0.3913730446403592,0.4058342257120556,0.3979580193200175,0.39018996512194865,0.3937465750803501,0.4198424102078969,0.44761281162694305,0.4834566847316199,0.4888625452315772,0.0,0.0,0.0,0.0,0.0,0.0,0.0,0.0,0.0,0.0,0.0,0.0,0.0,0.0,0.0,0.0,0.0,0.0,0.0,0.0,0.0,0.0,0.0,0.0,0.0,0.0,0.0,0.0,0.0,0.0,0.0,0.0,0.0,0.0,0.0,0.0,0.0,0.0,0.0,0.0,0.0,0.0,0.0,0.0,0.0,0.0,0.0,0.0,0.0,0.0,0.0,0.0,0.0,0.0,0.0,0.0,0.0,0.0,0.0,0.0,0.0,0.0,0.0,0.0,0.0,0.0,0.0,0.0,0.0,0.0,0.0,0.0,0.0,0.0,0.0,0.0,0.0,0.0
0.8300575963391698,0.33077180686854524,-0.1910509953832533,-0.1211671759720248,-0.14444362248555231,-0.19352417198780258,-0.02782178314840027,0.14899904162874794,0.31290904949083004,0.38213919050642337,0.40002012971289586,0.4082767588937903,0.41174313090093884,0.4152512572023784,0.42202722799261966,0.4288796069783975,0.4326148477303071,0.43003725942090837,0.4115335379170338,0.4220195558668754,0.41980055012583317,0.4064839365140789,0.3965059323120117,0.3978852721488594,0.3913730446403592,0.4058342257120556,0.3979580193200175,0.39018996512194865,0.3937465750803501,0.4198424102078969,0.44761281162694305,0.4834566847316199,0.4888625452315772,0.47984781852069774,0.47563521079588295,0.45695232762600707,0.4382055101192078,0.441818127411346,0.47256886947413707,0.5095724162627023,0.5752453739503672,0.6871902131747593,0.6929970972121754,0.07777981530871135,-0.20902479293763251,-0.21077120015087367,-0.21297726783841398,-0.1611219719747179,-0.21878936356443487,0.04708868450361082,0.2131384784263366,0.2938405672563696,0.3485825859743683,0.3437266720015627,0.3482804235500786,0.3430372795157064,0.32963915064445837,0.3241609955167999,0.33465681172808154,0.33870558746910256,0.33794257601468786,0.327585886880236,0.32851374079422135,0.32471388172462184,0.3258342119966676,0.3286901099032019,0.3397184999132414,0.34771217490865847,0.3542931296418039,0.37070479565138725,0.3841308946423859,0.4154344085111169,0.0,0.0,0.0,0.0,0.0,0.0,0.0,0.0,0.0,0.0,0.0,0.0,0.0,0.0,0.0,0.0,0.0,0.0,0.0,0.0,0.0,0.0,0.0,0.0,0.0,0.0,0.0,0.0,0.0,0.0,0.0,0.0,0.0,0.0,0.0,0.0,0.0,0.0,0.0,0.0,0.0,0.0,0.0,0.0,0.0,0.0,0.0,0.0,0.0,0.0,0.0,0.0,0.0,0.0,0.0,0.0,0.0,0.0,0.0,0.0,0.0,0.0,0.0,0.0,0.0,0.0,0.0,0.0,0.0,0.0,0.0,0.0,0.0,0.0,0.0,0.0,0.0,0.0
0.6871902131747593,0.6929970972121754,0.07777981530871135,-0.20902479293763251,-0.21077120015087367,-0.21297726783841398,-0.1611219719747179,-0.21878936356443487,0.04708868450361082,0.2131384784263366,0.2938405672563696,0.3485825859743683,0.3437266720015627,0.3482804235500786,0.3430372795157064,0.32963915064445837,0.3241609955167999,0.33465681172808154,0.33870558746910256,0.33794257601468786,0.327585886880236,0.32851374079422135,0.32471388172462184,0.3258342119966676,0.3286901099032019,0.3397184999132414,0.34771217490865847,0.3542931296418039,0.37070479565138725,0.3841308946423859,0.4154344085111169,0.4325489340896384,0.4483141426583899,0.44830187926931137,0.4293087853087355,0.40897947390593803,0.38571006095180066,0.37393324301855846,0.3511909492970788,0.3142695900064817,0.2824078952213524,0.26201212320534795,0.24344849460392623,0.25236689627511943,0.2518653580774676,0.23872176175034762,0.23537453063230201,0.2289759181798746,0.22592335167142308,0.22940538838996974,0.22496696786518364,0.21419050817851445,0.22271524094465703,0.2024016491636406,0.22058720642609358,0.24677275828418976,0.2825352985115162,0.47540207978424565,0.9263869279237622,0.6154013637883282,-0.0020941704559371997,-0.29261356572591146,-0.3572395654977819,-0.014747304773470743,0.10777529003619374,0.15309572129303037,0.16614533645219867,0.15336201610131686,0.1580716489323832,0.16104871707029653,0.1414630497238385,0.1474497608467135,0.0,0.0,0.0,0.0,0.0,0.0,0.0,0.0,0.0,0.0,0.0,0.0,0.0,0.0,0.0,0.0,0.0,0.0,0.0,0.0,0.0,0.0,0.0,0.0,0.0,0.0,0.0,0.0,0.0,0.0,0.0,0.0,0.0,0.0,0.0,0.0,0.0,0.0,0.0,0.0,0.0,0.0,0.0,0.0,0.0,0.0,0.0,0.0,0.0,0.0,0.0,0.0,0.0,0.0,0.0,0.0,0.0,0.0,0.0,0.0,0.0,0.0,0.0,0.0,0.0,0.0,0.0,0.0,0.0,0.0,0.0,0.0,0.0,0.0,0.0,0.0,0.0,0.0
0.2825352985115162,0.47540207978424565,0.9263869279237622,0.6154013637883282,-0.0020941704559371997,-0.29261356572591146,-0.3572395654977819,-0.014747304773470743,0.10777529003619374,0.15309572129303037,0.16614533645219867,0.15336201610131686,0.1580716489323832,0.16104871707029653,0.1414630497238385,0.1474497608467135,0.15496944197312462,0.16083216064081032,0.16345107209817147,0.14359603929621023,0.11250949653014182,0.10388723592519666,0.08887384730210358,0.08191769010796313,0.07501260361042755,0.061755880046570684,0.04215988682193728,0.033879170699266985,0.033717854389525716,0.04008375376569809,0.03534589053277401,0.03715806225016462,0.045531401611233216,0.05887299296115948,0.09323218112471002,0.1261653151727519,0.15126690359396908,0.19100035009217073,0.21650470018473483,0.2165605325238843,0.23287480764812604,0.24139503842054089,0.22769074867740505,0.22865385713171563,0.194566565917623,0.19439576318254057,0.1944601605372261,0.19475861132893904,0.1776465084675411,0.17359414780600543,0.1665589227864668,0.15012053422755448,0.14993510131072924,0.17241164192031327,0.17103095985533726,0.17305067451874662,0.16081939853826385,0.16480075602440705,0.17375714048602234,0.19248874700689858,0.20654855119065468,0.19507311596568525,0.2045601989482646,0.21735208007419626,0.22220546670977787,0.2575957187549471,0.25774601882061,0.27235636570588273,0.29499027995425764,0.29034039428569736,0.298479406688762,0.29372019857727616,0.0,0.0,0.0,0.0,0.0,0.0,0.0,0.0,0.0,0.0,0.0,0.0,0.0,0.0,0.0,0.0,0.0,0.0,0.0,0.0,0.0,0.0,0.0,0.0,0.0,0.0,0.0,0.0,0.0,0.0,0.0,0.0,0.0,0.0,0.0,0.0,0.0,0.0,0.0,0.0,0.0,0.0,0.0,0.0,0.0,0.0,0.0,0.0,0.0,0.0,0.0,0.0,0.0,0.0,0.0,0.0,0.0,0.0,0.0,0.0,0.0,0.0,0.0,0.0,0.0,0.0,0.0,0.0,0.0,0.0,0.0,0.0,0.0,0.0,0.0,0.0,0.0,0.0
0.423427155904474,0.5851007025002464,1.0,0.6528450029627961,0.09853211010465615,-0.2716395249863857,-0.26845792367475313,-0.26564105938316535,0.18269236504114159,0.2281317984486447,0.2588438083475222,0.2780668076976132,0.2633761143137586,0.2821619589176084,0.2686926630468414,0.2919595922906133,0.2926437641449822,0.294825589317403,0.2921106266969364,0.29253772406554673,0.2977288184205756,0.3044927963971275,0.3064293308704699,0.2891172594625269,0.26058796345877994,0.24811772925288014,0.23407338867823785,0.22648233390557318,0.23337078673866288,0.211440234717701,0.1927725387489449,0.2046369148638617,0.19892007501122724,0.22694718654332421,0.2518299815290849,0.27677562124831573,0.30017842015729784,0.32684675906569555,0.3439450297544765,0.3771286911597482,0.383085392503961,0.40510947549121223,0.38063843757906624,0.393059243444087,0.40546726273022976,0.41142928838480564,0.40932167369242906,0.39431098967552713,0.38401583655837074,0.3816180799894319,0.3935053906537441,0.4100249055672177,0.43274883212391546,0.43277393899379907,0.4549725087647942,0.565064873407471,0.5208274789183783,-0.024217120292000325,-0.23129454368296198,-0.23356882015797692,-0.2363558207431177,-0.2396548200188903,0.09176463583247628,0.24150474960647508,0.3058427623826303,0.32491951819118825,0.3228357062698604,0.3124633533536612,0.32752308525141344,0.3359756005824097,0.34908424941306754,0.33641027542712226,0.0,0.0,0.0,0.0,0.0,0.0,0.0,0.0,0.0,0.0,0.0,0.0,0.0,0.0,0.0,0.0,0.0,0.0,0.0,0.0,0.0,0.0,0.0,0.0,0.0,0.0,0.0,0.0,0.0,0.0,0.0,0.0,0.0,0.0,0.0,0.0,0.0,0.0,0.0,0.0,0.0,0.0,0.0,0.0,0.0,0.0,0.0,0.0,0.0,0.0,0.0,0.0,0.0,0.0,0.0,0.0,0.0,0.0,0.0,0.0,0.0,0.0,0.0,0.0,0.0,0.0,0.0,0.0,0.0,0.0,0.0,0.0,0.0,0.0,0.0,0.0,0.0,0.0
0.565064873407471,0.5208274789183783,-0.024217120292000325,-0.23129454368296198,-0.23356882015797692,-0.2363558207431177,-0.2396548200188903,0.09176463583247628,0.24150474960647508,0.3058427623826303,0.32491951819118825,0.3228357062698604,0.3124633533536612,0.32752308525141344,0.3359756005824097,0.34908424941306754,0.33641027542712226,0.32204450385471955,0.30441427694867135,0.2819453267392701,0.2947622896901028,0.2851527765079137,0.2723883268658678,0.24526566607367423,0.24871534702493747,0.22341563002323353,0.2399563989830576,0.24863672890033406,0.23824719637792682,0.2505045992448405,0.25334686643197296,0.2900922145672228,0.30461811495607516,0.31297440354719464,0.326397805525054,0.31442305469742937,0.27384891636689773,0.28166571161437653,0.26249544927833485,0.25002138380399846,0.2426404808861566,0.22110596797608428,0.19664324792222543,0.2013268312955233,0.21109505592515182,0.17943117719591656,0.1688800489526583,0.16820795022220705,0.14853782749455297,0.14514628853482625,0.1676473974930631,0.17272702837807177,0.14914746811911864,0.14501305465160236,0.14266901530081755,0.14049847790550823,0.1481108948644479,0.1398300398108301,0.1252639220965644,0.13807779029144532,0.13976245154140438,0.1736050130549077,0.16580991650348745,0.18051291551062626,0.1888249062936321,0.1875176834311918,0.187796860398311,0.21369801354455645,0.22670514047817383,0.27490974844244426,0.3903635855762235,0.5698320491964349,0.0,0.0,0.0,0.0,0.0,0.0,0.0,0.0,0.0,0.0,0.0,0.0,0.0,0.0,0.0,0.0,0.0,0.0,0.0,0.0,0.0,0.0,0.0,0.0,0.0,0.0,0.0,0.0,0.0,0.0,0.0,0.0,0.0,0.0,0.0,0.0,0.0,0.0,0.0,0.0,0.0,0.0,0.0,0.0,0.0,0.0,0.0,0.0,0.0,0.0,0.0,0.0,0.0,0.0,0.0,0.0,0.0,0.0,0.0,0.0,0.0,0.0,0.0,0.0,0.0,0.0,0.0,0.0,0.0,0.0,0.0,0.0,0.0,0.0,0.0,0.0,0.0,0.0
0.3903635855762235,0.5698320491964349,0.8886678501378158,0.17281191749235236,-0.2577929854958269,-0.24760917665745508,-0.12864870108281584,0.04456814152149392,0.11969765704527138,0.157709648734619,0.16824971949544107,0.17058585903263196,0.1583234148765319,0.1523325451120147,0.14782081528092322,0.15442979228322531,0.15293077787311124,0.1593792779289999,0.1609605076337196,0.16250137341030427,0.13995845083754843,0.146272905765249,0.13173800054712265,0.10598918081363158,0.08828440885246895,0.07863476631095638,0.06261613039352064,0.054673511172457834,0.03877821703983867,0.038997846966984884,0.048926417434559846,0.047722986913141384,0.04983134551441018,0.07450663240872893,0.09449172343143669,0.132248861178751,0.15731235137848698,0.1648776394401103,0.18061277281090304,0.21254248641335485,0.21255542258056168,0.21594001394254575,0.2130754787317925,0.21679403129092945,0.23190750779582908,0.24718803487348456,0.24338726682398876,0.2253135603753442,0.20900109322432525,0.20085974115267063,0.19286357191580242,0.19623199966490398,0.169256009823514,0.16324963501176476,0.17178700948633752,0.16438351288765418,0.16989658056236343,0.17387853687699825,0.1779194822939115,0.16757002230404874,0.17008029930562335,0.16939532878418542,0.18795197721272328,0.20808970014077413,0.21695860103160605,0.23218113149955946,0.30185204696554285,0.47727266706055166,0.6092599824213119,0.5630633603420637,0.03552355324054747,-0.3735468817002069,0.0,0.0,0.0,0.0,0.0,0.0,0.0,0.0,0.0,0.0,0.0,0.0,0.0,0.0,0.0,0.0,0.0,0.0,0.0,0.0,0.0,0.0,0.0,0.0,0.0,0.0,0.0,0.0,0.0,0.0,0.0,0.0,0.0,0.0,0.0,0.0,0.0,0.0,0.0,0.0,0.0,0.0,0.0,0.0,0.0,0.0,0.0,0.0,0.0,0.0,0.0,0.0,0.0,0.0,0.0,0.0,0.0,0.0,0.0,0.0,0.0,0.0,0.0,0.0,0.0,0.0,0.0,0.0,0.0,0.0,0.0,0.0,0.0,0.0,0.0,0.0,0.0,0.0
0.6092599824213119,0.5630633603420637,0.03552355324054747,-0.3735468817002069,-0.18302139419748342,0.000843238747790207,0.145990422885411,0.17705927068643046,0.19832077115148083,0.18413216079718633,0.16979646173546176,0.1793887375123121,0.17764028805015913,0.1790012556217777,0.17065523081467376,0.1686544352517759,0.15536912356454083,0.164492308964162,0.1655617255013236,0.14254904778601526,0.1515989377238519,0.12215020240329912,0.10874217043217164,0.11298609525748676,0.11885019847881444,0.08945192351290857,0.09055532322935624,0.09650383743940709,0.08805590340918347,0.0940853526217891,0.10978446256549265,0.1367604905332888,0.14133516862266918,0.16039949767505304,0.19876652069857098,0.21634032708344114,0.24038623981791393,0.24042944810520225,0.21807119037476544,0.21981965452924593,0.2264235732425709,0.21702671753252234,0.21888760303518429,0.21435550863262923,0.2178558699263601,0.20532034935140184,0.1895683588944921,0.19143759672998298,0.2125184624959646,0.2191154223693534,0.2593288703862392,0.2930456643226245,0.4148758201714315,0.9070798079683169,0.9067581570490302,0.06263901731153756,-0.3775030249383185,-0.19236573362804021,0.005380460008654436,0.13235804358059447,0.18538260568792245,0.20136563708736996,0.17872500023370572,0.1768243279526591,0.17964481922496126,0.1936208647199154,0.17867394270443251,0.15727520309811852,0.15831035268235522,0.15773684745272357,0.1427383897581471,0.15984080790458616,0.0,0.0,0.0,0.0,0.0,0.0,0.0,0.0,0.0,0.0,0.0,0.0,0.0,0.0,0.0,0.0,0.0,0.0,0.0,0.0,0.0,0.0,0.0,0.0,0.0,0.0,0.0,0.0,0.0,0.0,0.0,0.0,0.0,0.0,0.0,0.0,0.0,0.0,0.0,0.0,0.0,0.0,0.0,0.0,0.0,0.0,0.0,0.0,0.0,0.0,0.0,0.0,0.0,0.0,0.0,0.0,0.0,0.0,0.0,0.0,0.0,0.0,0.0,0.0,0.0,0.0,0.0,0.0,0.0,0.0,0.0,0.0,0.0,0.0,0.0,0.0,0.0,0.0
0.2930456643226245,0.4148758201714315,0.9070798079683169,0.9067581570490302,0.06263901731153756,-0.3775030249383185,-0.19236573362804021,0.005380460008654436,0.13235804358059447,0.18538260568792245,0.20136563708736996,0.17872500023370572,0.1768243279526591,0.17964481922496126,0.1936208647199154,0.17867394270443251,0.15727520309811852,0.15831035268235522,0.15773684745272357,0.1427383897581471,0.15984080790458616,0.13207179954988701,0.13322134358785043,0.12160065438647528,0.10524001950108322,0.07613049290500105,0.09362482980209366,0.09037026267185148,0.1080762098049308,0.09863533439982684,0.08932129949398288,0.10901113750604233,0.13525783239623823,0.18571038701592305,0.18980468724431204,0.1908499320176172,0.21451188311201913,0.22230084573914738,0.2190303416137672,0.21432436862003196,0.21299424181677015,0.1941884037150106,0.17715079580137996,0.1586703128102744,0.17723539022679027,0.175101916712123,0.18273733543349216,0.1616421240600255,0.14548966167842609,0.15031003102818172,0.16326306135877056,0.16830010525377093,0.16541032456017712,0.17382839031892458,0.16787999489890176,0.17000583826321394,0.17056852981754622,0.18879935498009318,0.18779355680087062,0.1835728987429045,0.19376206785930886,0.20069985706551405,0.23002837952916236,0.27531149376116515,0.42313593648712844,0.8980192478522047,0.8996086778414787,0.1375752797471799,-0.28786555350658616,-0.24202437671122418,-0.06492771456075015,0.09748827006915321,0.0,0.0,0.0,0.0,0.0,0.0,0.0,0.0,0.0,0.0,0.0,0.0,0.0,0.0,0.0,0.0,0.0,0.0,0.0,0.0,0.0,0.0,0.0,0.0,0.0,0.0,0.0,0.0,0.0,0.0,0.0,0.0,0.0,0.0,0.0,0.0,0.0,0.0,0.0,0.0,0.0,0.0,0.0,0.0,0.0,0.0,0.0,0.0,0.0,0.0,0.0,0.0,0.0,0.0,0.0,0.0,0.0,0.0,0.0,0.0,0.0,0.0,0.0,0.0,0.0,0.0,0.0,0.0,0.0,0.0,0.0,0.0,0.0,0.0,0.0,0.0,0.0,0.0
0.27531149376116515,0.42313593648712844,0.8980192478522047,0.8996086778414787,0.1375752797471799,-0.28786555350658616,-0.24202437671122418,-0.06492771456075015,0.09748827006915321,0.14099400894036587,0.16344612866532446,0.17609197276131788,0.1821587547256301,0.18166508247993657,0.18585569105724514,0.17870874368132222,0.17146713778130776,0.16574970189538946,0.16477826978393828,0.13809273274349768,0.11778279793628117,0.12150271903998781,0.10435552106130809,0.09522129915546189,0.09250623810049043,0.08499287122070547,0.05985940675135577,0.044380191910140976,0.02092112299730325,0.03760623928488857,0.02226978359890704,0.016620052343103972,0.030287979414861107,0.06809282793768172,0.08834169541687585,0.13915764213446122,0.1676199455180249,0.20901962788991862,0.2441155465051089,0.25045778840467825,0.2617304095775062,0.2618964744294896,0.24454091406171105,0.2401361889239433,0.21018744677288068,0.22044970094597102,0.21157563432939042,0.20280609289655183,0.20696541451120742,0.209611259522816,0.2027157036852528,0.20551543817992426,0.21799978991525093,0.2064759445071446,0.18536587430873583,0.19154459510364444,0.19933555608909975,0.17985352362361104,0.19082084551300976,0.31562077122146587,0.5269690796157345,0.9034349002782848,0.2180406058381531,-0.2557742205272436,-0.21651179591411832,0.003824250772715927,0.1390092241218216,0.19547504443879452,0.19889928767757722,0.20222421590071868,0.2086713573802887,0.1990071534570656,0.0,0.0,0.0,0.0,0.0,0.0,0.0,0.0,0.0,0.0,0.0,0.0,0.0,0.0,0.0,0.0,0.0,0.0,0.0,0.0,0.0,0.0,0.0,0.0,0.0,0.0,0.0,0.0,0.0,0.0,0.0,0.0,0.0,0.0,0.0,0.0,0.0,0.0,0.0,0.0,0.0,0.0,0.0,0.0,0.0,0.0,0.0,0.0,0.0,0.0,0.0,0.0,0.0,0.0,0.0,0.0,0.0,0.0,0.0,0.0,0.0,0.0,0.0,0.0,0.0,0.0,0.0,0.0,0.0,0.0,0.0,0.0,0.0,0.0,0.0,0.0,0.0,0.0
0.31562077122146587,0.5269690796157345,0.9034349002782848,0.2180406058381531,-0.2557742205272436,-0.21651179591411832,0.003824250772715927,0.1390092241218216,0.19547504443879452,0.19889928767757722,0.20222421590071868,0.2086713573802887,0.1990071534570656,0.19730129117759238,0.19875293651094333,0.17610619310952513,0.18390116131254813,0.18525689512953722,0.1881996806846344,0.18632011479665564,0.1571692277072904,0.1568863833933959,0.14537840651335399,0.12264790124043631,0.10954695810822174,0.08683049046397558,0.07053784019336305,0.043026801314278884,0.05241318002818048,0.06982716462464898,0.1064952452741724,0.14317017441184232,0.16060417199652374,0.2037032444511006,0.2435949175154723,0.26102887376054945,0.28968104219244,0.28944836901075865,0.266738366188205,0.2760729751918021,0.25649469962993754,0.25450345412356595,0.27489744431546426,0.26152682613199213,0.32343822447313214,0.43174477662772004,0.6152970547768716,0.8965280221463294,0.38847749516298125,-0.24167637380815887,-0.2529796971274278,-0.0848984704936476,0.09898970341961906,0.16879640100882398,0.1935116608980645,0.18759335076177522,0.17993313373693676,0.20102559755164795,0.19956743981685288,0.22690155671933346,0.1884183538422953,0.1691397087428554,0.15785480341402477,0.14174811159239836,0.1464960191294888,0.1304119757056151,0.11275547572014705,0.09033128570236401,0.06315133351991126,0.06009662142570648,0.049101058716853156,0.03819481815415461,0.0,0.0,0.0,0.0,0.0,0.0,0.0,0.0,0.0,0.0,0.0,0.0,0.0,0.0,0.0,0.0,0.0,0.0,0.0,0.0,0.0,0.0,0.0,0.0,0.0,0.0,0.0,0.0,0.0,0.0,0.0,0.0,0.0,0.0,0.0,0.0,0.0,0.0,0.0,0.0,0.0,0.0,0.0,0.0,0.0,0.0,0.0,0.0,0.0,0.0,0.0,0.0,0.0,0.0,0.0,0.0,0.0,0.0,0.0,0.0,0.0,0.0,0.0,0.0,0.0,0.0,0.0,0.0,0.0,0.0,0.0,0.0,0.0,0.0,0.0,0.0,0.0,0.0
0.8965280221463294,0.38847749516298125,-0.24167637380815887,-0.2529796971274278,-0.0848984704936476,0.09898970341961906,0.16879640100882398,0.1935116608980645,0.18759335076177522,0.17993313373693676,0.20102559755164795,0.19956743981685288,0.22690155671933346,0.1884183538422953,0.1691397087428554,0.15785480341402477,0.14174811159239836,0.1464960191294888,0.1304119757056151,0.11275547572014705,0.09033128570236401,0.06315133351991126,0.06009662142570648,0.049101058716853156,0.03819481815415461,0.027388514203758978,0.013484845241979019,0.036590661765108126,0.06303506918308853,0.10886672924659424,0.11314858575308397,0.14485590535402468,0.16229687246476737,0.17831027418879375,0.17526069754564988,0.1836277147396792,0.1857741449355691,0.1881198275275174,0.17623345978665755,0.1613445993109415,0.16109737276251146,0.1418114982286001,0.1564144664346793,0.13754336720830887,0.11887784945066988,0.09881189807291721,0.09819297940717026,0.08814832643201743,0.09433600812880759,0.08948618832747206,0.08321739800896386,0.0803361330496774,0.06159053487093292,0.10075237156997748,0.09837594704117775,0.10257041674129203,0.1309710556477699,0.1290388107817249,0.14488117801281794,0.16245050570176486,0.16409455524551905,0.15782207671446186,0.17569893807428244,0.16157777749731092,0.18601549673309728,0.18484373478103225,0.16606701566727555,0.15212370222016328,0.16063973925933622,0.15150125890252203,0.15837126773087684,0.17321158831458291,0.0,0.0,0.0,0.0,0.0,0.0,0.0,0.0,0.0,0.0,0.0,0.0,0.0,0.0,0.0,0.0,0.0,0.0,0.0,0.0,0.0,0.0,0.0,0.0,0.0,0.0,0.0,0.0,0.0,0.0,0.0,0.0,0.0,0.0,0.0,0.0,0.0,0.0,0.0,0.0,0.0,0.0,0.0,0.0,0.0,0.0,0.0,0.0,0.0,0.0,0.0,0.0,0.0,0.0,0.0,0.0,0.0,0.0,0.0,0.0,0.0,0.0,0.0,0.0,0.0,0.0,0.0,0.0,0.0,0.0,0.0,0.0,0.0,0.0,0.0,0.0,0.0,0.0
0.4225364063072319,0.593997700427308,0.8983976328022301,0.07026005674744613,-0.3218705266494441,-0.2523657482742563,-0.051624149160420095,0.10074278484471508,0.156645201933497,0.16903608773030274,0.1780367441705214,0.19489810196740232,0.2340779267662184,0.22983988182811882,0.23352842674929497,0.23393623216951034,0.19419300016043817,0.18969764216365018,0.18999316983614684,0.19669889750416336,0.17614821325489555,0.155620298880198,0.1495625549678808,0.13713662773106952,0.12476907905394302,0.12850896048477536,0.11628882299027672,0.11057190196001208,0.10655518785560274,0.10585056851064911,0.08921918573047283,0.1288418178662726,0.13490867882821855,0.16356083108376848,0.19074553466337224,0.21486330760353603,0.24874847723394305,0.31004588424135526,0.33299827256078984,0.34487086425443453,0.36009631593013663,0.3514051333367421,0.35247279894066447,0.3408378486571202,0.3277181697526491,0.3066874571679526,0.3146220563154348,0.2809379877927712,0.29383209231671115,0.30837921361066595,0.289275901584819,0.2814102921468992,0.2607029848366195,0.2560006365520172,0.26567521207663203,0.2864935336329485,0.287955431583562,0.30531766869616306,0.2888308523940535,0.3379032813943133,0.577603611185717,0.685521154094266,0.2414067183976972,-0.27682928282354763,-0.27579953935581464,-0.27517105736694275,0.18697924334930258,0.2846989502781662,0.29869988094054817,0.2947748466077117,0.3002224636625807,0.289412410204061,0.0,0.0,0.0,0.0,0.0,0.0,0.0,0.0,0.0,0.0,0.0,0.0,0.0,0.0,0.0,0.0,0.0,0.0,0.0,0.0,0.0,0.0,0.0,0.0,0.0,0.0,0.0,0.0,0.0,0.0,0.0,0.0,0.0,0.0,0.0,0.0,0.0,0.0,0.0,0.0,0.0,0.0,0.0,0.0,0.0,0.0,0.0,0.0,0.0,0.0,0.0,0.0,0.0,0.0,0.0,0.0,0.0,0.0,0.0,0.0,0.0,0.0,0.0,0.0,0.0,0.0,0.0,0.0,0.0,0.0,0.0,0.0,0.0,0.0,0.0,0.0,0.0,0.0
0.685521154094266,0.2414067183976972,-0.27682928282354763,-0.27579953935581464,-0.27517105736694275,0.18697924334930258,0.2846989502781662,0.29869988094054817,0.2947748466077117,0.3002224636625807,0.289412410204061,0.29605577786001414,0.28649998376561464,0.29284932964991117,0.27984445731139784,0.26515200871170563,0.261625638916562,0.25805973886356626,0.2512667041514848,0.22522673961741066,0.21524239561682945,0.19246059405663712,0.1969932706202591,0.190362133352409,0.16776901904676522,0.17734227709612432,0.16776993946010643,0.1631206916069428,0.17142375457644485,0.21193457171007168,0.233337776684129,0.2677177965114224,0.28621111431672697,0.29684171346689764,0.3284823595255572,0.3506614192064872,0.3361133419274157,0.3265369137874829,0.31390950102507853,0.2982261499833848,0.2858957876895679,0.27370267469281057,0.2728644050842071,0.2641238158419054,0.25228031799011175,0.24854745216544238,0.24809887202420086,0.25573016383266334,0.26180091034189523,0.25987714076788726,0.2563544757850564,0.2560233741242435,0.2652768753017825,0.26484493779118057,0.28036434530199184,0.33105510708759234,0.5435946219570742,0.6629393446703917,0.46772412572970745,-0.13190276931401265,-0.26027015369132006,-0.29591483012580305,0.11722017582905456,0.1868543590920798,0.2033138550450082,0.21153289344332138,0.21955584864216318,0.22419899942710414,0.20784276378362113,0.2106054907855957,0.20844998797819939,0.20781139847872304,0.0,0.0,0.0,0.0,0.0,0.0,0.0,0.0,0.0,0.0,0.0,0.0,0.0,0.0,0.0,0.0,0.0,0.0,0.0,0.0,0.0,0.0,0.0,0.0,0.0,0.0,0.0,0.0,0.0,0.0,0.0,0.0,0.0,0.0,0.0,0.0,0.0,0.0,0.0,0.0,0.0,0.0,0.0,0.0,0.0,0.0,0.0,0.0,0.0,0.0,0.0,0.0,0.0,0.0,0.0,0.0,0.0,0.0,0.0,0.0,0.0,0.0,0.0,0.0,0.0,0.0,0.0,0.0,0.0,0.0,0.0,0.0,0.0,0.0,0.0,0.0,0.0,0.0
0.6629393446703917,0.46772412572970745,-0.13190276931401265,-0.26027015369132006,-0.29591483012580305,0.11722017582905456,0.1868543590920798,0.2033138550450082,0.21153289344332138,0.21955584864216318,0.22419899942710414,0.20784276378362113,0.2106054907855957,0.20844998797819939,0.20781139847872304,0.19427360990217782,0.17106195894317744,0.1702703369699871,0.16625272795767523,0.16543951568707077,0.16142935221238475,0.13498916192727134,0.11018935114117535,0.08223012517603084,0.07357680189084488,0.060182273815702604,0.06611494233284784,0.05770385582975333,0.0798669974549217,0.08770575859672852,0.11009880897068679,0.15347030395330455,0.19377045982747176,0.2069487255245584,0.22829649576490949,0.2417805286733294,0.26504755460746143,0.2628156306125205,0.26716371592658383,0.26044971641553516,0.2474842779368903,0.23307674409958293,0.24128157178562434,0.22718596250479722,0.2356922145998728,0.226696774916579,0.2226455515965895,0.20107516767727945,0.213298810630391,0.19996214605864024,0.19633766398515465,0.2008080157912689,0.19250852047553024,0.18265074415385238,0.17282211505231299,0.18064777372199145,0.20610950846679674,0.2235264034258129,0.2537285263688775,0.36886842928572416,0.541657916935373,0.5988554569683207,0.17154557668506057,-0.28801256126059177,-0.2521791117227075,-0.0048413226454107035,0.15249502690619332,0.21985077867263894,0.2293232630767715,0.23385892453988238,0.2222485585520563,0.2041320045610948,0.0,0.0,0.0,0.0,0.0,0.0,0.0,0.0,0.0,0.0,0.0,0.0,0.0,0.0,0.0,0.0,0.0,0.0,0.0,0.0,0.0,0.0,0.0,0.0,0.0,0.0,0.0,0.0,0.0,0.0,0.0,0.0,0.0,0.0,0.0,0.0,0.0,0.0,0.0,0.0,0.0,0.0,0.0,0.0,0.0,0.0,0.0,0.0,0.0,0.0,0.0,0.0,0.0,0.0,0.0,0.0,0.0,0.0,0.0,0.0,0.0,0.0,0.0,0.0,0.0,0.0,0.0,0.0,0.0,0.0,0.0,0.0,0.0,0.0,0.0,0.0,0.0,0.0
0.5988554569683207,0.17154557668506057,-0.28801256126059177,-0.2521791117227075,-0.0048413226454107035,0.15249502690619332,0.21985077867263894,0.2293232630767715,0.23385892453988238,0.2222485585520563,0.2041320045610948,0.2003750286771124,0.1869342247297771,0.1878810614097816,0.18237792111627107,0.1576055596324447,0.14885969758806442,0.12888462782807486,0.12976681354020733,0.11141825838480114,0.09309323182940224,0.07479909555579742,0.058146608337486444,0.05597319285759715,0.05705804269813171,0.059803246922361615,0.06421447186121736,0.05425845925067169,0.05720591881688971,0.07306162550991138,0.11786869382890522,0.15795013367087132,0.20132879209401958,0.2207417501327014,0.25628730960794316,0.25824636539117307,0.2619032464845018,0.2592367015956614,0.24863962014764052,0.23491904561140883,0.2148614654704738,0.2173294437705603,0.22467245607176953,0.2224466164027284,0.21545326612425064,0.21009649692194013,0.20476001042570857,0.2090534956880891,0.21654699238283986,0.2320365328213464,0.24909002867492608,0.2773128570109551,0.3455555001411333,0.5227636177596826,0.6324901704288652,0.33469152398988267,-0.2166894503422547,-0.3256060102493263,-0.003294215937003419,0.16646187179961267,0.21576172733888999,0.2119889690230274,0.204883648248992,0.18644570438550342,0.1823551660983579,0.18942160378312853,0.1916227755965796,0.18897411816617918,0.173470797216156,0.16758042219972094,0.16329634661652567,0.154214948621983,0.0,0.0,0.0,0.0,0.0,0.0,0.0,0.0,0.0,0.0,0.0,0.0,0.0,0.0,0.0,0.0,0.0,0.0,0.0,0.0,0.0,0.0,0.0,0.0,0.0,0.0,0.0,0.0,0.0,0.0,0.0,0.0,0.0,0.0,0.0,0.0,0.0,0.0,0.0,0.0,0.0,0.0,0.0,0.0,0.0,0.0,0.0,0.0,0.0,0.0,0.0,0.0,0.0,0.0,0.0,0.0,0.0,0.0,0.0,0.0,0.0,0.0,0.0,0.0,0.0,0.0,0.0,0.0,0.0,0.0,0.0,0.0,0.0,0.0,0.0,0.0,0.0,0.0
0.6324901704288652,0.33469152398988267,-0.2166894503422547,-0.3256060102493263,-0.003294215937003419,0.16646187179961267,0.21576172733888999,0.2119889690230274,0.204883648248992,0.18644570438550342,0.1823551660983579,0.18942160378312853,0.1916227755965796,0.18897411816617918,0.173470797216156,0.16758042219972094,0.16329634661652567,0.154214948621983,0.14676269035275064,0.13613822496563724,0.12235105947761644,0.11503319556177061,0.10617353499928954,0.1102144802155972,0.13037086486333643,0.1393835829231757,0.1356546774474154,0.15287047084363145,0.1637698300468652,0.176375833912994,0.20833391779597885,0.23719207122380417,0.25332814251784336,0.2695728698493258,0.27790551149642834,0.2831348783359568,0.28846452915928716,0.271434806157447,0.2544927608192418,0.2504609121122127,0.23847939282477856,0.23938750994547683,0.25156930225566915,0.2429342229995939,0.22950634431114678,0.24815873690544762,0.2555701960722809,0.28861140420136033,0.33122430142163395,0.4154652615411969,0.5830121775938711,0.630149893932712,0.17032000825244722,-0.24638329870425468,-0.32969243217007577,0.01180465185951654,0.15743634247481952,0.19864594543816255,0.22366825421441824,0.23573235347150098,0.22363144651520364,0.19861163379976352,0.20399514877963074,0.19489079116811123,0.20018401836489141,0.19102026123229987,0.18184823877512507,0.16305777652876502,0.16673821729210284,0.1528042734708866,0.14692818865254145,0.16034667938227432,0.0,0.0,0.0,0.0,0.0,0.0,0.0,0.0,0.0,0.0,0.0,0.0,0.0,0.0,0.0,0.0,0.0,0.0,0.0,0.0,0.0,0.0,0.0,0.0,0.0,0.0,0.0,0.0,0.0,0.0,0.0,0.0,0.0,0.0,0.0,0.0,0.0,0.0,0.0,0.0,0.0,0.0,0.0,0.0,0.0,0.0,0.0,0.0,0.0,0.0,0.0,0.0,0.0,0.0,0.0,0.0,0.0,0.0,0.0,0.0,0.0,0.0,0.0,0.0,0.0,0.0,0.0,0.0,0.0,0.0,0.0,0.0,0.0,0.0,0.0,0.0,0.0,0.0
0.630149893932712,0.17032000825244722,-0.24638329870425468,-0.32969243217007577,0.01180465185951654,0.15743634247481952,0.19864594543816255,0.22366825421441824,0.23573235347150098,0.22363144651520364,0.19861163379976352,0.20399514877963074,0.19489079116811123,0.20018401836489141,0.19102026123229987,0.18184823877512507,0.16305777652876502,0.16673821729210284,0.1528042734708866,0.14692818865254145,0.16034667938227432,0.14655667548094695,0.12481266990878737,0.12880318586349662,0.12645775760666253,0.10976321375202792,0.11080231457135441,0.13278774547863376,0.14685438671883938,0.17866778156587457,0.20898458740128512,0.24261850663579318,0.26673970862058866,0.2604978368249669,0.24955321519797627,0.24994168985224707,0.2520360582083769,0.2574349058836199,0.2677355583149392,0.3198190300379586,0.4633958973734884,0.6455279338433632,0.7202505676333378,0.2384659758516381,-0.18556638977702844,-0.12363632657101783,0.045741130348586914,0.14775323616150635,0.18240803614988754,0.20905575147097094,0.19722938800096837,0.1902385839994592,0.18167225228504183,0.19238401796722354,0.17265664524786953,0.186646178017687,0.17501037992799143,0.15859920929282212,0.14703471146921263,0.1371072383551718,0.1143793687700451,0.12054818552251591,0.1171170716308096,0.0864390206245634,0.08304025555230893,0.08927275216322197,0.07305330798435003,0.08730298974621062,0.0983339207876779,0.11576207699522889,0.12835272933339698,0.15053237088228674,0.0,0.0,0.0,0.0,0.0,0.0,0.0,0.0,0.0,0.0,0.0,0.0,0.0,0.0,0.0,0.0,0.0,0.0,0.0,0.0,0.0,0.0,0.0,0.0,0.0,0.0,0.0,0.0,0.0,0.0,0.0,0.0,0.0,0.0,0.0,0.0,0.0,0.0,0.0,0.0,0.0,0.0,0.0,0.0,0.0,0.0,0.0,0.0,0.0,0.0,0.0,0.0,0.0,0.0,0.0,0.0,0.0,0.0,0.0,0.0,0.0,0.0,0.0,0.0,0.0,0.0,0.0,0.0,0.0,0.0,0.0,0.0,0.0,0.0,0.0,0.0,0.0,0.0
0.7202505676333378,0.2384659758516381,-0.18556638977702844,-0.12363632657101783,0.045741130348586914,0.14775323616150635,0.18240803614988754,0.20905575147097094,0.19722938800096837,0.1902385839994592,0.18167225228504183,0.19238401796722354,0.17265664524786953,0.186646178017687,0.17501037992799143,0.15859920929282212,0.14703471146921263,0.1371072383551718,0.1143793687700451,0.12054818552251591,0.1171170716308096,0.0864390206245634,0.08304025555230893,0.08927275216322197,0.07305330798435003,0.08730298974621062,0.0983339207876779,0.11576207699522889,0.12835272933339698,0.15053237088228674,0.20314230318984508,0.2364531225957843,0.2632850494853192,0.2643798708206062,0.26217848364323326,0.271101150306073,0.31679386017468525,0.3815969580463271,0.49756894404299506,0.6101578321767921,0.6022585088580823,0.021555535112762484,-0.3011794930279925,-0.3018213899736321,0.11746475563354954,0.1772297090271699,0.20308495049106784,0.19826470002820912,0.20289100104786942,0.20736516634178337,0.20689908192029716,0.1950997344100526,0.19444260198398278,0.19051334848528634,0.18653915368074667,0.18093465709678783,0.17692515323768201,0.16490413147143754,0.156114409792636,0.11688983005477774,0.11781451980101182,0.10597460516917134,0.10383716344448755,0.0937721780923588,0.0966418147813009,0.08679575614064299,0.09311452855829778,0.1284395988646744,0.16391154181285975,0.17708574018943551,0.20165194674880396,0.22478701463837042,0.0,0.0,0.0,0.0,0.0,0.0,0.0,0.0,0.0,0.0,0.0,0.0,0.0,0.0,0.0,0.0,0.0,0.0,0.0,0.0,0.0,0.0,0.0,0.0,0.0,0.0,0.0,0.0,0.0,0.0,0.0,0.0,0.0,0.0,0.0,0.0,0.0,0.0,0.0,0.0,0.0,0.0,0.0,0.0,0.0,0.0,0.0,0.0,0.0,0.0,0.0,0.0,0.0,0.0,0.0,0.0,0.0,0.0,0.0,0.0,0.0,0.0,0.0,0.0,0.0,0.0,0.0,0.0,0.0,0.0,0.0,0.0,0.0,0.0,0.0,0.0,0.0,0.0
0.6101578321767921,0.6022585088580823,0.021555535112762484,-0.3011794930279925,-0.3018213899736321,0.11746475563354954,0.1772297090271699,0.20308495049106784,0.19826470002820912,0.20289100104786942,0.20736516634178337,0.20689908192029716,0.1950997344100526,0.19444260198398278,0.19051334848528634,0.18653915368074667,0.18093465709678783,0.17692515323768201,0.16490413147143754,0.156114409792636,0.11688983005477774,0.11781451980101182,0.10597460516917134,0.10383716344448755,0.0937721780923588,0.0966418147813009,0.08679575614064299,0.09311452855829778,0.1284395988646744,0.16391154181285975,0.17708574018943551,0.20165194674880396,0.22478701463837042,0.24168610153516776,0.24754324118115548,0.24396670911927446,0.24379058108136548,0.2309781869240227,0.22798433893986958,0.22037385569953227,0.21295676654640977,0.21535358662823922,0.19708720236211777,0.193437788269973,0.19317251925942436,0.19147305328063888,0.18672780753693202,0.17572037930848045,0.18089523316237952,0.173372353211915,0.16436738304101378,0.18434145006630379,0.19639263243686209,0.18607216240472724,0.19025389211068855,0.2025064542721715,0.21639753033714093,0.21747447643192894,0.216945367621172,0.26130216787031474,0.3168426285243494,0.47175674881572205,0.5977114984509784,0.5455212751005805,0.04250007092133232,-0.25059284085467143,-0.30010865962375166,-0.013031863821073693,0.13110264528045806,0.1820358485328541,0.20073510918000428,0.1984471409925152,0.0,0.0,0.0,0.0,0.0,0.0,0.0,0.0,0.0,0.0,0.0,0.0,0.0,0.0,0.0,0.0,0.0,0.0,0.0,0.0,0.0,0.0,0.0,0.0,0.0,0.0,0.0,0.0,0.0,0.0,0.0,0.0,0.0,0.0,0.0,0.0,0.0,0.0,0.0,0.0,0.0,0.0,0.0,0.0,0.0,0.0,0.0,0.0,0.0,0.0,0.0,0.0,0.0,0.0,0.0,0.0,0.0,0.0,0.0,0.0,0.0,0.0,0.0,0.0,0.0,0.0,0.0,0.0,0.0,0.0,0.0,0.0,0.0,0.0,0.0,0.0,0.0,0.0
0.5977114984509784,0.5455212751005805,0.04250007092133232,-0.25059284085467143,-0.30010865962375166,-0.013031863821073693,0.13110264528045806,0.1820358485328541,0.20073510918000428,0.1984471409925152,0.18802151662331965,0.17589136625815585,0.16688501741730663,0.16262219304847872,0.15189088121131353,0.13630915731746532,0.13513682546077693,0.12432871912675333,0.12635101029506765,0.15083834883881928,0.14808183823478183,0.14375336798798163,0.13786228626829708,0.1368326727102558,0.1422763299633367,0.15099278884003833,0.15176155598184787,0.15421159631864764,0.1423093150465836,0.15775939838722208,0.1700920059113016,0.18893307233937562,0.20626519379537292,0.2252970596429664,0.24602860280411543,0.2732702173890978,0.30060402946007136,0.3135914859387457,0.32345433165263904,0.3125432174301394,0.3145307786798891,0.30214131089529667,0.294609551094173,0.3047532753562852,0.3133115355561992,0.28979482189699807,0.2999438114964236,0.3084543913521543,0.32492910036323486,0.3012298830733512,0.3127144763368521,0.33690349482846255,0.41707435452328845,0.5660293982793884,0.6714676040690104,0.5553267548446479,-0.23632308373325847,-0.21674092761258568,-0.23599108886816528,0.1822770461736687,0.24257350194730787,0.2640918692231463,0.25487518967684625,0.23579608498770177,0.2341413526905478,0.2290807346036258,0.23506777811160384,0.23768535915377592,0.22411904088841758,0.20721499897296505,0.20623373870113926,0.19231885255549777,0.0,0.0,0.0,0.0,0.0,0.0,0.0,0.0,0.0,0.0,0.0,0.0,0.0,0.0,0.0,0.0,0.0,0.0,0.0,0.0,0.0,0.0,0.0,0.0,0.0,0.0,0.0,0.0,0.0,0.0,0.0,0.0,0.0,0.0,0.0,0.0,0.0,0.0,0.0,0.0,0.0,0.0,0.0,0.0,0.0,0.0,0.0,0.0,0.0,0.0,0.0,0.0,0.0,0.0,0.0,0.0,0.0,0.0,0.0,0.0,0.0,0.0,0.0,0.0,0.0,0.0,0.0,0.0,0.0,0.0,0.0,0.0,0.0,0.0,0.0,0.0,0.0,0.0
0.6714676040690104,0.5553267548446479,-0.23632308373325847,-0.21674092761258568,-0.23599108886816528,0.1822770461736687,0.24257350194730787,0.2640918692231463,0.25487518967684625,0.23579608498770177,0.2341413526905478,0.2290807346036258,0.23506777811160384,0.23768535915377592,0.22411904088841758,0.20721499897296505,0.20623373870113926,0.19231885255549777,0.1879365037018175,0.1770591923226776,0.15969710449686178,0.13906726612293652,0.13602839275054063,0.1120955899517081,0.09614551058714475,0.08978858355577755,0.08501158168174688,0.07380082884627519,0.08503106270373906,0.10427236284181898,0.14756777229245507,0.1796362108738605,0.21170787474368308,0.21812322304745368,0.2325645710326038,0.2518243044993872,0.28231682177243617,0.34970161274932804,0.44274791691246834,0.5871120640672616,0.9527958004880321,0.3368915873501144,-0.33679112641151915,0.009526229235906425,0.12484578545162689,0.15673777622835833,0.17257868343627578,0.17879742805752633,0.18182206818083968,0.16883341721333803,0.16390021828286483,0.13816290594039224,0.12851946010856424,0.1125242552542208,0.10301599952009123,0.08877490005954443,0.07301541196680217,0.0589515464615857,0.0449853620129396,0.034330210005792956,0.02538762922464795,0.021370574476573284,-0.01139696520057095,-0.008755491591588027,0.002035410431692788,0.006547888232121866,0.02563905526868743,0.0352578406405129,0.0482418840825075,0.08705182438761082,0.109993556824451,0.1363193186016806,0.0,0.0,0.0,0.0,0.0,0.0,0.0,0.0,0.0,0.0,0.0,0.0,0.0,0.0,0.0,0.0,0.0,0.0,0.0,0.0,0.0,0.0,0.0,0.0,0.0,0.0,0.0,0.0,0.0,0.0,0.0,0.0,0.0,0.0,0.0,0.0,0.0,0.0,0.0,0.0,0.0,0.0,0.0,0.0,0.0,0.0,0.0,0.0,0.0,0.0,0.0,0.0,0.0,0.0,0.0,0.0,0.0,0.0,0.0,0.0,0.0,0.0,0.0,0.0,0.0,0.0,0.0,0.0,0.0,0.0,0.0,0.0,0.0,0.0,0.0,0.0,0.0,0.0
0.44274791691246834,0.5871120640672616,0.9527958004880321,0.3368915873501144,-0.33679112641151915,0.009526229235906425,0.12484578545162689,0.15673777622835833,0.17257868343627578,0.17879742805752633,0.18182206818083968,0.16883341721333803,0.16390021828286483,0.13816290594039224,0.12851946010856424,0.1125242552542208,0.10301599952009123,0.08877490005954443,0.07301541196680217,0.0589515464615857,0.0449853620129396,0.034330210005792956,0.02538762922464795,0.021370574476573284,-0.01139696520057095,-0.008755491591588027,0.002035410431692788,0.006547888232121866,0.02563905526868743,0.0352578406405129,0.0482418840825075,0.08705182438761082,0.109993556824451,0.1363193186016806,0.16282672114995617,0.1654624810510017,0.16989224004697615,0.17932673675742097,0.17933337220408255,0.17793272658523526,0.17993675831654785,0.17251404801346107,0.1588709021863469,0.1470243524489539,0.1385751858290308,0.1415389044640529,0.14949555459471614,0.14479743686208824,0.13225018023967583,0.121470277387418,0.11886583459860796,0.12763662569940734,0.12211230414510378,0.12313389938615238,0.11946457915404195,0.133548009226082,0.13169206853115648,0.14275460801512183,0.13785376808008987,0.1458460274385342,0.14105584856643053,0.14592284144578552,0.15080865962191747,0.1765476156255106,0.17981876562905977,0.18787023561336194,0.18143723828708985,0.18455833607028965,0.1715514449027753,0.19532282326842182,0.24622723213686107,0.34348798190530916,0.0,0.0,0.0,0.0,0.0,0.0,0.0,0.0,0.0,0.0,0.0,0.0,0.0,0.0,0.0,0.0,0.0,0.0,0.0,0.0,0.0,0.0,0.0,0.0,0.0,0.0,0.0,0.0,0.0,0.0,0.0,0.0,0.0,0.0,0.0,0.0,0.0,0.0,0.0,0.0,0.0,0.0,0.0,0.0,0.0,0.0,0.0,0.0,0.0,0.0,0.0,0.0,0.0,0.0,0.0,0.0,0.0,0.0,0.0,0.0,0.0,0.0,0.0,0.0,0.0,0.0,0.0,0.0,0.0,0.0,0.0,0.0,0.0,0.0,0.0,0.0,0.0,0.0
0.6336754119061238,0.37746594626215835,-0.1580819880112084,-0.32664547659701165,-0.13947023611705944,0.03617156027947117,0.13133942488007821,0.14124719142934933,0.1637552406785735,0.15558334205032173,0.15043584896883125,0.14031591043694955,0.13647227397274664,0.12128345947303915,0.13326249399880355,0.13393639541584948,0.1297396668979405,0.11587910403175689,0.11482651718947327,0.12659906153753217,0.13517469253106715,0.1277384577456487,0.12836356771444682,0.12583761800515245,0.12338232538846858,0.12742650256275234,0.1620408334513293,0.171102236951398,0.16424518662875354,0.1719535137903457,0.1862175271282567,0.19261122533551053,0.2280312778694086,0.24116095044815006,0.2544600462956694,0.28076398748391534,0.29922581006928733,0.3034319093090977,0.3062135350260758,0.3059656568625539,0.29466626316169986,0.28193430057499247,0.26455634195961597,0.2713948016586975,0.27036399403450767,0.26786957786424354,0.2639004098736427,0.2568401448826811,0.25148656844077427,0.25424004445448567,0.2554610538188136,0.25994356924938444,0.26446097336719415,0.24653899838092522,0.24464883139353957,0.2491445500768391,0.2471712837427238,0.24030767900119376,0.23975432195306373,0.23906810902415865,0.25907040135252213,0.3253929524092692,0.550274798438611,0.6898958608723509,0.508452622557661,-0.27316617220014205,-0.2275645597827508,-0.2721676853947694,0.11749336391955591,0.208485111674225,0.23981420398701872,0.24198411202676334,0.0,0.0,0.0,0.0,0.0,0.0,0.0,0.0,0.0,0.0,0.0,0.0,0.0,0.0,0.0,0.0,0.0,0.0,0.0,0.0,0.0,0.0,0.0,0.0,0.0,0.0,0.0,0.0,0.0,0.0,0.0,0.0,0.0,0.0,0.0,0.0,0.0,0.0,0.0,0.0,0.0,0.0,0.0,0.0,0.0,0.0,0.0,0.0,0.0,0.0,0.0,0.0,0.0,0.0,0.0,0.0,0.0,0.0,0.0,0.0,0.0,0.0,0.0,0.0,0.0,0.0,0.0,0.0,0.0,0.0,0.0,0.0,0.0,0.0,0.0,0.0,0.0,0.0
0.6898958608723509,0.508452622557661,-0.27316617220014205,-0.2275645597827508,-0.2721676853947694,0.11749336391955591,0.208485111674225,0.23981420398701872,0.24198411202676334,0.23747779510190364,0.2584001779475578,0.2518502823426378,0.26115759153750223,0.2590803769847178,0.24884899294846685,0.23690022340679082,0.22165029530340535,0.2159490141017594,0.1845292002776568,0.15627709687672187,0.12800077314113206,0.10773455483268643,0.10992757794080701,0.09610097537235644,0.07589120713247641,0.06053811527930335,0.05807343729919334,0.04605521938835271,0.053364819227713765,0.07039066283317727,0.0955402221859091,0.12561675475588846,0.17185780333283407,0.21181916890737307,0.23749055620196632,0.2809571747900369,0.29090219378286836,0.30261595563097327,0.2920444336326206,0.2864556898582143,0.2778313498827999,0.2725863700238237,0.2594918293053878,0.2385444817248498,0.22577840939914337,0.21798015102832627,0.2151428415361538,0.22367397617711515,0.22431817356553532,0.21225369696670873,0.20992335153889072,0.20608776745653393,0.22158377643477867,0.21469653999290916,0.2303186898564304,0.3181533719417642,0.5487527938242227,0.6189675963280173,0.22885340162913506,-0.22225318770210573,-0.17944204524878382,-0.0003797259704722983,0.17701343259605645,0.242082792471826,0.26380543709239224,0.26143750018530787,0.2670646969139183,0.255032383170666,0.23978114347131566,0.23093869949609908,0.21567749820931828,0.22286925838645757,0.0,0.0,0.0,0.0,0.0,0.0,0.0,0.0,0.0,0.0,0.0,0.0,0.0,0.0,0.0,0.0,0.0,0.0,0.0,0.0,0.0,0.0,0.0,0.0,0.0,0.0,0.0,0.0,0.0,0.0,0.0,0.0,0.0,0.0,0.0,0.0,0.0,0.0,0.0,0.0,0.0,0.0,0.0,0.0,0.0,0.0,0.0,0.0,0.0,0.0,0.0,0.0,0.0,0.0,0.0,0.0,0.0,0.0,0.0,0.0,0.0,0.0,0.0,0.0,0.0,0.0,0.0,0.0,0.0,0.0,0.0,0.0,0.0,0.0,0.0,0.0,0.0,0.0
0.19417697278364168,0.06297414420665796,-0.0219134930128005,0.04204442025392119,0.09249034812339006,0.12429156297420736,0.1271879719565771,0.14047892093723555,0.11801474023211575,0.10592930774236475,0.09225101315998703,0.08038842486041799,0.08400345551734045,0.07574239364906006,0.0641394271932012,0.05772836537541971,0.051370955986484466,0.04505556095199398,0.03193441497389135,0.027376106175159957,0.004024873201236661,-0.003952348863093399,-0.008530770047320602,-0.013140386946698892,-0.0109565801800144,-0.008825222767044337,0.010334399438615487,0.036260357504030075,0.06381757360092397,0.11863220525917345,0.14771758167871904,0.18695275369385594,0.20043939467777855,0.22063694692866723,0.26462314221775907,0.28111590544280163,0.3230788615111822,0.38536933161531933,0.5260748224654218,0.9861404462924592,0.42058675937418055,-0.3776521548480951,-0.16447687152106483,-0.025074917031029778,0.13456944616952127,0.19998029149451563,0.23270468150919293,0.23789274833411264,0.2514548772263659,0.24435949547498523,0.2559324767833716,0.2571397693686939,0.2565433288145524,0.2558679546368248,0.2585461312269637,0.22870280901561404,0.2073651873526139,0.19112616467606533,0.19366727852032253,0.1876538885756633,0.16625799730259921,0.14315827999882524,0.13545051585648765,0.12775938402417403,0.12692546509673788,0.0,0.0,0.0,0.0,0.0,0.0,0.0,0.0,0.0,0.0,0.0,0.0,0.0,0.0,0.0,0.0,0.0,0.0,0.0,0.0,0.0,0.0,0.0,0.0,0.0,0.0,0.0,0.0,0.0,0.0,0.0,0.0,0.0,0.0,0.0,0.0,0.0,0.0,0.0,0.0,0.0,0.0,0.0,0.0,0.0,0.0,0.0,0.0,0.0,0.0,0.0,0.0,0.0,0.0,0.0,0.0,0.0,0.0,0.0,0.0,0.0,0.0,0.0,0.0,0.0,0.0,0.0,0.0,0.0,0.0,0.0,0.0,0.0,0.0,0.0,0.0,0.0,0.0,0.0,0.0,0.0,0.0,0.0,0.0,0.0
0.3230788615111822,0.38536933161531933,0.5260748224654218,0.9861404462924592,0.42058675937418055,-0.3776521548480951,-0.16447687152106483,-0.025074917031029778,0.13456944616952127,0.19998029149451563,0.23270468150919293,0.23789274833411264,0.2514548772263659,0.24435949547498523,0.2559324767833716,0.2571397693686939,0.2565433288145524,0.2558679546368248,0.2585461312269637,0.22870280901561404,0.2073651873526139,0.19112616467606533,0.19366727852032253,0.1876538885756633,0.16625799730259921,0.14315827999882524,0.13545051585648765,0.12775938402417403,0.12692546509673788,0.13807973327989367,0.1492628522298417,0.1775672442718365,0.1922334928347431,0.22573309442330336,0.2592675566082288,0.27232829070253994,0.2751668283414139,0.2763243719263554,0.2945945535780402,0.28895575806762414,0.3004153416200008,0.3016205119925183,0.30794116467128874,0.343290525000958,0.43158027862034876,0.5522872373179678,0.6387439299910194,0.5781379991106113,0.008144624964247093,-0.2868466484717061,-0.17868987335605097,0.011329671830453329,0.11575076744471416,0.1533896047471362,0.17040527771978847,0.1770677939601203,0.17681043867031654,0.19015528763578107,0.2000262455609092,0.1961821367425335,0.17863459089957184,0.17473773831576017,0.15715785315087594,0.1464114284581333,0.12028998169600875,0.0,0.0,0.0,0.0,0.0,0.0,0.0,0.0,0.0,0.0,0.0,0.0,0.0,0.0,0.0,0.0,0.0,0.0,0.0,0.0,0.0,0.0,0.0,0.0,0.0,0.0,0.0,0.0,0.0,0.0,0.0,0.0,0.0,0.0,0.0,0.0,0.0,0.0,0.0,0.0,0.0,0.0,0.0,0.0,0.0,0.0,0.0,0.0,0.0,0.0,0.0,0.0,0.0,0.0,0.0,0.0,0.0,0.0,0.0,0.0,0.0,0.0,0.0,0.0,0.0,0.0,0.0,0.0,0.0,0.0,0.0,0.0,0.0,0.0,0.0,0.0,0.0,0.0,0.0,0.0,0.0,0.0,0.0,0.0,0.0
0.5781379991106113,0.008144624964247093,-0.2868466484717061,-0.17868987335605097,0.011329671830453329,0.11575076744471416,0.1533896047471362,0.17040527771978847,0.1770677939601203,0.17681043867031654,0.19015528763578107,0.2000262455609092,0.1961821367425335,0.17863459089957184,0.17473773831576017,0.15715785315087594,0.1464114284581333,0.12028998169600875,0.11639816399349677,0.09885441856427193,0.07279182884444167,0.06385059510464691,0.05836429903535045,0.05121104103513381,0.045813467642177814,0.0302132610094881,0.04884780476595494,0.058996984271001425,0.08971707951821892,0.11195917738083623,0.13598017076771832,0.14981981409299805,0.16202479297658087,0.1691782707937696,0.19862401745584182,0.22814489680837383,0.3107173536344848,0.41386831238186644,0.547847333716914,0.9023435061474414,0.16998756816086766,-0.17268604574838628,-0.0778406581187124,0.05804523970893841,0.10339052805006083,0.13168990806021472,0.13098918433137635,0.12180388725813997,0.11268611914364593,0.07459008624278304,0.06562677858300651,0.07554810955258574,0.07018011811483298,0.056363687705765386,0.05973799437521708,0.04783703421914208,0.04117250000230728,0.03803926660546312,0.009388521571358235,0.023582415002883467,0.022519448236125644,0.014747740791632442,0.03444981347599299,0.05086734485277584,0.06058532271198369,0.0,0.0,0.0,0.0,0.0,0.0,0.0,0.0,0.0,0.0,0.0,0.0,0.0,0.0,0.0,0.0,0.0,0.0,0.0,0.0,0.0,0.0,0.0,0.0,0.0,0.0,0.0,0.0,0.0,0.0,0.0,0.0,0.0,0.0,0.0,0.0,0.0,0.0,0.0,0.0,0.0,0.0,0.0,0.0,0.0,0.0,0.0,0.0,0.0,0.0,0.0,0.0,0.0,0.0,0.0,0.0,0.0,0.0,0.0,0.0,0.0,0.0,0.0,0.0,0.0,0.0,0.0,0.0,0.0,0.0,0.0,0.0,0.0,0.0,0.0,0.0,0.0,0.0,0.0,0.0,0.0,0.0,0.0,0.0,0.0
0.9023435061474414,0.16998756816086766,-0.17268604574838628,-0.0778406581187124,0.05804523970893841,0.10339052805006083,0.13168990806021472,0.13098918433137635,0.12180388725813997,0.11268611914364593,0.07459008624278304,0.06562677858300651,0.07554810955258574,0.07018011811483298,0.056363687705765386,0.05973799437521708,0.04783703421914208,0.04117250000230728,0.03803926660546312,0.009388521571358235,0.023582415002883467,0.022519448236125644,0.014747740791632442,0.03444981347599299,0.05086734485277584,0.06058532271198369,0.0653153832835515,0.08044060060855157,0.1179257869667019,0.14701116262924577,0.18478745082061973,0.20391148231175685,0.22318128892624525,0.2135427903481332,0.21088155885934098,0.19810410366905237,0.1957131666074715,0.18490424436325043,0.1776332717191476,0.16876558301451103,0.1531656244223299,0.15133151217096133,0.15470814759291962,0.1615755457320335,0.15654120735364288,0.16693601515083056,0.17565691171295192,0.18952555124035061,0.20681787168771715,0.23606266893529881,0.23793661219185616,0.23292905608046519,0.21418468406563904,0.2209891399565198,0.26357454757110854,0.30090289801514025,0.39789085523918194,0.5869831944271517,0.9946159188807295,0.36124937969612164,-0.11858358268376737,-0.2090827532977161,-0.36485955900056993,0.02247227857452371,0.11725608402758086,0.0,0.0,0.0,0.0,0.0,0.0,0.0,0.0,0.0,0.0,0.0,0.0,0.0,0.0,0.0,0.0,0.0,0.0,0.0,0.0,0.0,0.0,0.0,0.0,0.0,0.0,0.0,0.0,0.0,0.0,0.0,0.0,0.0,0.0,0.0,0.0,0.0,0.0,0.0,0.0,0.0,0.0,0.0,0.0,0.0,0.0,0.0,0.0,0.0,0.0,0.0,0.0,0.0,0.0,0.0,0.0,0.0,0.0,0.0,0.0,0.0,0.0,0.0,0.0,0.0,0.0,0.0,0.0,0.0,0.0,0.0,0.0,0.0,0.0,0.0,0.0,0.0,0.0,0.0,0.0,0.0,0.0,0.0,0.0,0.0
0.9946159188807295,0.36124937969612164,-0.11858358268376737,-0.2090827532977161,-0.36485955900056993,0.02247227857452371,0.11725608402758086,0.1656115554717667,0.17611130942140385,0.17099887507078823,0.18960657697985742,0.18410853751101097,0.15623799116811085,0.1641231824555538,0.15993558397021101,0.176167324527328,0.16498825642994358,0.17426953630873054,0.18352279216432457,0.17909465101855507,0.17638327134701134,0.17882314300649554,0.15908645727751322,0.15136734464473417,0.1539708207239454,0.16178320910977306,0.1731079987271772,0.1828299344006346,0.18241496023019063,0.16161913857399957,0.16659355025863717,0.1785476995106694,0.21628754461772576,0.24051325299349693,0.2614839707882972,0.24502448418848563,0.2543694247170424,0.26559485157136453,0.2633203900628196,0.26463472178067565,0.26782656819784284,0.26605642483696557,0.2661551888255979,0.26640758904807543,0.2719328939816645,0.29297594284234285,0.2936380901917089,0.28416135070155585,0.2833311088143205,0.2672071383602141,0.271661662241564,0.2727517015973453,0.2704584655492862,0.2562169614995121,0.25222226121776037,0.24819777113680191,0.25950015046138464,0.2621785627863664,0.28013196678798097,0.3799822000551195,0.5616999634203035,0.5996703356321635,0.281947327677264,-0.31460252472452077,-0.3133172624315252,0.0,0.0,0.0,0.0,0.0,0.0,0.0,0.0,0.0,0.0,0.0,0.0,0.0,0.0,0.0,0.0,0.0,0.0,0.0,0.0,0.0,0.0,0.0,0.0,0.0,0.0,0.0,0.0,0.0,0.0,0.0,0.0,0.0,0.0,0.0,0.0,0.0,0.0,0.0,0.0,0.0,0.0,0.0,0.0,0.0,0.0,0.0,0.0,0.0,0.0,0.0,0.0,0.0,0.0,0.0,0.0,0.0,0.0,0.0,0.0,0.0,0.0,0.0,0.0,0.0,0.0,0.0,0.0,0.0,0.0,0.0,0.0,0.0,0.0,0.0,0.0,0.0,0.0,0.0,0.0,0.0,0.0,0.0,0.0,0.0
0.5996703356321635,0.281947327677264,-0.31460252472452077,-0.3133172624315252,-0.0628348026831619,0.09507257278996292,0.19632038944386768,0.23409950756623465,0.26654057434711614,0.27657849242139615,0.26765444282771333,0.25687996444999467,0.2613652578999531,0.2674578227295395,0.2666307544410716,0.24522890847109707,0.24770070523783252,0.21937321866625795,0.20811033971095894,0.19683409395611054,0.173592369210846,0.14352174503601728,0.12542967376838107,0.1227421818059991,0.10641428414640569,0.1157590857649808,0.12002148828470996,0.13117000433862153,0.14237390293789476,0.1382569592825929,0.16838300520758098,0.19857576924420328,0.24934510095978168,0.269423218169599,0.3100791474965658,0.3149156101377131,0.2993104157675265,0.31111018373459937,0.32980133314669136,0.33657769515286196,0.3382659657787877,0.334855287792794,0.32975104781781467,0.32464799060812555,0.3434557908616085,0.39128385652178466,0.45615020233103215,0.5756309467867937,0.5941865897147682,0.28278914632050944,-0.2338360475340723,-0.25162505617060293,-0.0713646737108855,0.10530233045230704,0.2014946008021821,0.23432347288233232,0.24995172383106695,0.27403334806270446,0.26557135413640814,0.26730679246332534,0.24336687635576473,0.24845276497967259,0.25523395624010753,0.24150560855495987,0.2363306319389047,0.0,0.0,0.0,0.0,0.0,0.0,0.0,0.0,0.0,0.0,0.0,0.0,0.0,0.0,0.0,0.0,0.0,0.0,0.0,0.0,0.0,0.0,0.0,0.0,0.0,0.0,0.0,0.0,0.0,0.0,0.0,0.0,0.0,0.0,0.0,0.0,0.0,0.0,0.0,0.0,0.0,0.0,0.0,0.0,0.0,0.0,0.0,0.0,0.0,0.0,0.0,0.0,0.0,0.0,0.0,0.0,0.0,0.0,0.0,0.0,0.0,0.0,0.0,0.0,0.0,0.0,0.0,0.0,0.0,0.0,0.0,0.0,0.0,0.0,0.0,0.0,0.0,0.0,0.0,0.0,0.0,0.0,0.0,0.0,0.0
0.5941865897147682,0.28278914632050944,-0.2338360475340723,-0.25162505617060293,-0.0713646737108855,0.10530233045230704,0.2014946008021821,0.23432347288233232,0.24995172383106695,0.27403334806270446,0.26557135413640814,0.26730679246332534,0.24336687635576473,0.24845276497967259,0.25523395624010753,0.24150560855495987,0.2363306319389047,0.2123747983353516,0.18844482302445975,0.17480152145130223,0.16632405850686716,0.16130866025897278,0.13070723967964268,0.11212063929413499,0.12264143698488275,0.109293978750149,0.118222117729706,0.12550148931245844,0.1653120359121641,0.1932205631930659,0.23315175394798196,0.26972307024588044,0.2995135815424919,0.3105561707171013,0.31651673696436855,0.319096853552568,0.30974270561297573,0.3004064938992264,0.30474783804364514,0.3210441473161178,0.35098924243177776,0.4202008851760859,0.564548887941604,0.6780566519623024,0.6342371446210849,-0.007850093950675261,-0.33051945899333,-0.19879175722454617,0.0011084883598595416,0.12564903807608602,0.16972402166761844,0.16240629247712873,0.14985753114936914,0.1372233840843764,0.14332048913228254,0.12544196470641963,0.12461962463639846,0.1340335629598781,0.1280646071019867,0.14261574763991686,0.14693959873128973,0.1410494781149277,0.13692074197719162,0.14311010607261374,0.12544941174654467,0.0,0.0,0.0,0.0,0.0,0.0,0.0,0.0,0.0,0.0,0.0,0.0,0.0,0.0,0.0,0.0,0.0,0.0,0.0,0.0,0.0,0.0,0.0,0.0,0.0,0.0,0.0,0.0,0.0,0.0,0.0,0.0,0.0,0.0,0.0,0.0,0.0,0.0,0.0,0.0,0.0,0.0,0.0,0.0,0.0,0.0,0.0,0.0,0.0,0.0,0.0,0.0,0.0,0.0,0.0,0.0,0.0,0.0,0.0,0.0,0.0,0.0,0.0,0.0,0.0,0.0,0.0,0.0,0.0,0.0,0.0,0.0,0.0,0.0,0.0,0.0,0.0,0.0,0.0,0.0,0.0,0.0,0.0,0.0,0.0
0.6342371446210849,-0.007850093950675261,-0.33051945899333,-0.19879175722454617,0.0011084883598595416,0.12564903807608602,0.16972402166761844,0.16240629247712873,0.14985753114936914,0.1372233840843764,0.14332048913228254,0.12544196470641963,0.12461962463639846,0.1340335629598781,0.1280646071019867,0.14261574763991686,0.14693959873128973,0.1410494781149277,0.13692074197719162,0.14311010607261374,0.12544941174654467,0.11129261811368377,0.10235854315838855,0.09865648080970711,0.09677727801953387,0.1069830291951101,0.09168425227515867,0.10044827748641853,0.13157294886780121,0.16284799711020434,0.18231630059309425,0.19681856697035924,0.2097766571299469,0.21264867472143778,0.2020185772877835,0.2154844813418147,0.20690408128475124,0.18311198945419083,0.16974042718173232,0.1650772187635252,0.15031966387139456,0.18014984325648287,0.2015841277618247,0.20265320969449083,0.2192378660230417,0.22569502713011008,0.2254329762767191,0.23382164139428824,0.22863253622054058,0.21156155167605634,0.19626620866426642,0.18956709991196824,0.203410739591572,0.20360056905007906,0.19866320238626436,0.19028836532718202,0.18700066065274978,0.20586857766215275,0.23319825399133343,0.2928920849621607,0.454993424895143,0.5331990248175332,0.44886831909924874,-0.07488216458230601,-0.29297552274443983,0.0,0.0,0.0,0.0,0.0,0.0,0.0,0.0,0.0,0.0,0.0,0.0,0.0,0.0,0.0,0.0,0.0,0.0,0.0,0.0,0.0,0.0,0.0,0.0,0.0,0.0,0.0,0.0,0.0,0.0,0.0,0.0,0.0,0.0,0.0,0.0,0.0,0.0,0.0,0.0,0.0,0.0,0.0,0.0,0.0,0.0,0.0,0.0,0.0,0.0,0.0,0.0,0.0,0.0,0.0,0.0,0.0,0.0,0.0,0.0,0.0,0.0,0.0,0.0,0.0,0.0,0.0,0.0,0.0,0.0,0.0,0.0,0.0,0.0,0.0,0.0,0.0,0.0,0.0,0.0,0.0,0.0,0.0,0.0,0.0
0.46241304346088535,-0.055408250182478844,-0.35142939827621805,-0.3504921546482546,0.087535881170642,0.1782689390139876,0.2139703941337775,0.22713965642004438,0.23489435758088037,0.22700751215059348,0.21888547407498685,0.21226172152455175,0.20374173546575267,0.20189270870197823,0.19306423662909455,0.18923941906270716,0.17505690902173665,0.17275170035682308,0.15499785145971431,0.13719274676912804,0.1364419633267433,0.12370826722059584,0.11096896454215736,0.10678280765712563,0.10945418853306235,0.11386903003905306,0.12345754573433487,0.12114176872636813,0.11376866112594869,0.11331148211168525,0.12490705165000533,0.14172885000439372,0.17574837641748434,0.19450326408997062,0.20654548969391637,0.2358067657150348,0.24127700340727368,0.25713950904838206,0.25263561402677515,0.26536406772207743,0.24747397672489974,0.23314356523201982,0.22749737100261094,0.2356587660780203,0.23882443872167586,0.2489513155631147,0.242106809673084,0.2422081819478814,0.24753696886647295,0.2580824634591337,0.2704147858868567,0.27255792793722294,0.25424349691610304,0.24963489473741834,0.23820728914660172,0.23703188674342748,0.23241728643128462,0.23459644824519232,0.2503832349492998,0.27975446595663955,0.399589250413918,0.5056147339203122,0.4918470965365276,0.11900051805652881,-0.4095906745765162,0.0,0.0,0.0,0.0,0.0,0.0,0.0,0.0,0.0,0.0,0.0,0.0,0.0,0.0,0.0,0.0,0.0,0.0,0.0,0.0,0.0,0.0,0.0,0.0,0.0,0.0,0.0,0.0,0.0,0.0,0.0,0.0,0.0,0.0,0.0,0.0,0.0,0.0,0.0,0.0,0.0,0.0,0.0,0.0,0.0,0.0,0.0,0.0,0.0,0.0,0.0,0.0,0.0,0.0,0.0,0.0,0.0,0.0,0.0,0.0,0.0,0.0,0.0,0.0,0.0,0.0,0.0,0.0,0.0,0.0,0.0,0.0,0.0,0.0,0.0,0.0,0.0,0.0,0.0,0.0,0.0,0.0,0.0,0.0,0.0
0.4918470965365276,0.11900051805652881,-0.4095906745765162,-0.18137119865120052,-0.014931031259743526,0.10000636299565695,0.16175616481524097,0.16179718449855812,0.175346835583058,0.1785016022715735,0.18837231424601222,0.19643439479698735,0.20099819572241628,0.19353721627936682,0.19970330257830526,0.18362449972373748,0.1743686228079734,0.16511424936422778,0.15416598785925797,0.12786484804304232,0.10502145308777813,0.085647143327015,0.06804376639481792,0.059057579650629806,0.046735856720653876,0.03621525186538382,0.030923218073810963,0.02916012448201055,0.032644120794405235,0.049929081283670906,0.07247904107969051,0.10542952640469139,0.13169912238685028,0.16838523885108903,0.1881514697290272,0.23714617349150102,0.2589787123188661,0.26561596634936524,0.2604786828665852,0.2692028597731262,0.27811693795714,0.26842110951582276,0.25891146299049606,0.24103926334143155,0.22163518930155574,0.21265561718413484,0.19700336605876792,0.20543128429909616,0.200332531573176,0.1885323977903325,0.1939448471194216,0.18408697052408737,0.18116185219474215,0.2039537207025078,0.20801409789714698,0.20187148121860363,0.20601610118186425,0.20846679469235074,0.2280027852349186,0.2458049669316348,0.2686876077739229,0.32909826061165487,0.4697369404099766,0.593166674080784,0.5506791120847051,0.0,0.0,0.0,0.0,0.0,0.0,0.0,0.0,0.0,0.0,0.0,0.0,0.0,0.0,0.0,0.0,0.0,0.0,0.0,0.0,0.0,0.0,0.0,0.0,0.0,0.0,0.0,0.0,0.0,0.0,0.0,0.0,0.0,0.0,0.0,0.0,0.0,0.0,0.0,0.0,0.0,0.0,0.0,0.0,0.0,0.0,0.0,0.0,0.0,0.0,0.0,0.0,0.0,0.0,0.0,0.0,0.0,0.0,0.0,0.0,0.0,0.0,0.0,0.0,0.0,0.0,0.0,0.0,0.0,0.0,0.0,0.0,0.0,0.0,0.0,0.0,0.0,0.0,0.0,0.0,0.0,0.0,0.0,0.0,0.0
0.5878339710682781,0.3300653481391604,-0.16039568628999726,-0.44267058272244486,-0.04852207259573248,0.10948335184510433,0.17150784475874836,0.2008094712372741,0.20254054069809077,0.1852702936956892,0.17636560159626408,0.17926686312347756,0.18886875721188937,0.196647131277306,0.20433069394506106,0.20339336505151867,0.1921439131484486,0.18768873333520275,0.18662564888494101,0.18042464185049994,0.15542785837981496,0.13386486193420843,0.10891198976799002,0.08399871536447294,0.06084500005480263,0.05313315832207964,0.048910686541121254,0.05502345893536067,0.06977226721370404,0.08803969278332499,0.12179764411224965,0.15054720521788176,0.17771439742046857,0.19476171615869914,0.19485973589149427,0.19168566837582052,0.18866194551665147,0.20117281393615086,0.20187738714128306,0.22495660609482188,0.3045904023726054,0.45615893925303375,0.6113014450437706,0.6708934505978438,0.20939462014725266,-0.09816360715430693,-0.06551557050083538,0.05440904525609782,0.1060979320005962,0.1186070095311746,0.1227006347489067,0.11667218726766006,0.09539649801369066,0.08450923121225783,0.08230209263062882,0.0802304951210394,0.0697494400252621,0.05256733308590706,0.03381016648282193,0.03398437788915875,0.02232720816067112,0.014217853221132561,-0.0005991165250072122,-0.011871590655938208,-0.012765337018218307,0.0,0.0,0.0,0.0,0.0,0.0,0.0,0.0,0.0,0.0,0.0,0.0,0.0,0.0,0.0,0.0,0.0,0.0,0.0,0.0,0.0,0.0,0.0,0.0,0.0,0.0,0.0,0.0,0.0,0.0,0.0,0.0,0.0,0.0,0.0,0.0,0.0,0.0,0.0,0.0,0.0,0.0,0.0,0.0,0.0,0.0,0.0,0.0,0.0,0.0,0.0,0.0,0.0,0.0,0.0,0.0,0.0,0.0,0.0,0.0,0.0,0.0,0.0,0.0,0.0,0.0,0.0,0.0,0.0,0.0,0.0,0.0,0.0,0.0,0.0,0.0,0.0,0.0,0.0,0.0,0.0,0.0,0.0,0.0,0.0
0.6708934505978438,0.20939462014725266,-0.09816360715430693,-0.06551557050083538,0.05440904525609782,0.1060979320005962,0.1186070095311746,0.1227006347489067,0.11667218726766006,0.09539649801369066,0.08450923121225783,0.08230209263062882,0.0802304951210394,0.0697494400252621,0.05256733308590706,0.03381016648282193,0.03398437788915875,0.02232720816067112,0.014217853221132561,-0.0005991165250072122,-0.011871590655938208,-0.012765337018218307,-0.01866157435613822,-0.007343021678156905,0.017774860973547604,0.017388991707260385,0.03251767659124846,0.046074236613378734,0.07515118201751254,0.10778834360860731,0.1337341440279292,0.1666620132660905,0.16555774969197956,0.17143676279092387,0.17233563890071762,0.17508875068974852,0.1711489008182399,0.17076666001706933,0.15513929420488937,0.15160534045696195,0.14477837034660623,0.15174158167259763,0.15539809649748237,0.16257582446696245,0.16301222231406853,0.16695154499933548,0.1726744592766544,0.19725944065659892,0.22360474943306888,0.22435385404944766,0.2097463919541862,0.21565539270974832,0.21984793901119648,0.22401558156769366,0.2281398042564889,0.2287830356924855,0.2225065637915655,0.21954227329218334,0.2181581632544423,0.22345700539595476,0.24566738342017327,0.288180893376648,0.3851493196379515,0.5450884917889065,0.6107424572225072,0.0,0.0,0.0,0.0,0.0,0.0,0.0,0.0,0.0,0.0,0.0,0.0,0.0,0.0,0.0,0.0,0.0,0.0,0.0,0.0,0.0,0.0,0.0,0.0,0.0,0.0,0.0,0.0,0.0,0.0,0.0,0.0,0.0,0.0,0.0,0.0,0.0,0.0,0.0,0.0,0.0,0.0,0.0,0.0,0.0,0.0,0.0,0.0,0.0,0.0,0.0,0.0,0.0,0.0,0.0,0.0,0.0,0.0,0.0,0.0,0.0,0.0,0.0,0.0,0.0,0.0,0.0,0.0,0.0,0.0,0.0,0.0,0.0,0.0,0.0,0.0,0.0,0.0,0.0,0.0,0.0,0.0,0.0,0.0,0.0
0.6107424572225072,0.2693364869973724,-0.1818057711180305,-0.46074272436763886,-0.09069320293418272,0.061919206074393655,0.16289595710462007,0.20714143578510924,0.2322834030701599,0.2366423295858578,0.22879133009458644,0.23097407688483232,0.22099994089074088,0.21940132798154485,0.20227638162908193,0.20040911124955363,0.18476864914959296,0.15879350984243495,0.1430109599202577,0.14256676367772014,0.12671765091808526,0.11086176360070722,0.09843383695115329,0.087741149109516,0.08050842123114085,0.09213167650337864,0.10211821613487777,0.11390042696696825,0.10869360655105406,0.11385460792631374,0.14477696751836083,0.18267430063539206,0.2173043366618607,0.2555135675329055,0.2733859820020422,0.2863105458759828,0.3011300200704349,0.281961544142905,0.27836913161174254,0.2715566824988216,0.2529805105336712,0.22264040962350223,0.22496806617066317,0.2189456737645111,0.21482332892063813,0.21259622787295432,0.1849150112632233,0.1915866039552314,0.19842378866567095,0.19003703369262204,0.1903420698362552,0.19249226105163283,0.19818485754456228,0.19544440632179472,0.20647381531017076,0.21587772818568424,0.23560323773075428,0.23658113512590628,0.24784593167091817,0.28817715020657925,0.35413649564517496,0.9019965143201147,0.6551348433723995,0.36717810951647123,-0.12938386841341354,0.0,0.0,0.0,0.0,0.0,0.0,0.0,0.0,0.0,0.0,0.0,0.0,0.0,0.0,0.0,0.0,0.0,0.0,0.0,0.0,0.0,0.0,0.0,0.0,0.0,0.0,0.0,0.0,0.0,0.0,0.0,0.0,0.0,0.0,0.0,0.0,0.0,0.0,0.0,0.0,0.0,0.0,0.0,0.0,0.0,0.0,0.0,0.0,0.0,0.0,0.0,0.0,0.0,0.0,0.0,0.0,0.0,0.0,0.0,0.0,0.0,0.0,0.0,0.0,0.0,0.0,0.0,0.0,0.0,0.0,0.0,0.0,0.0,0.0,0.0,0.0,0.0,0.0,0.0,0.0,0.0,0.0,0.0,0.0,0.0
0.28817715020657925,0.35413649564517496,0.9019965143201147,0.6551348433723995,0.36717810951647123,-0.12938386841341354,-0.22619182060618104,-0.1488503707860648,0.017192688107606352,0.12839880578528687,0.18307365614815652,0.19832091461777354,0.17586263291744555,0.16697993134025416,0.17851989346842553,0.18314941614015187,0.19284075821519184,0.18367694336962714,0.14541177181349915,0.1498285697986379,0.15762704302378788,0.1483047915592522,0.13724694677671492,0.11762131982505707,0.11848335505502189,0.1124919781675309,0.10990280947554538,0.12780677720101113,0.08930104247978896,0.07812508108242663,0.056681223226720326,0.06256598256269061,0.08381552915989472,0.09992088229688274,0.12455199401893612,0.1491617380680796,0.17032926820302424,0.18805092755822844,0.21086704558290376,0.23022733554943509,0.24099839157941702,0.2739339760943626,0.2367409798840684,0.2627086462413407,0.3159372431244187,0.39983197956934413,0.5417220312170073,0.6305081995786725,0.4952747118277875,-0.09129328794642072,-0.4199988914923452,0.014996338829930608,0.15415642608253363,0.21112617454895213,0.2201080205475627,0.21701231235808807,0.20698688106020846,0.21568608377866882,0.19185970105395952,0.18850345812150293,0.16461890334617812,0.1526922490409849,0.13052192147340247,0.14084635195398157,0.13924597198050337,0.0,0.0,0.0,0.0,0.0,0.0,0.0,0.0,0.0,0.0,0.0,0.0,0.0,0.0,0.0,0.0,0.0,0.0,0.0,0.0,0.0,0.0,0.0,0.0,0.0,0.0,0.0,0.0,0.0,0.0,0.0,0.0,0.0,0.0,0.0,0.0,0.0,0.0,0.0,0.0,0.0,0.0,0.0,0.0,0.0,0.0,0.0,0.0,0.0,0.0,0.0,0.0,0.0,0.0,0.0,0.0,0.0,0.0,0.0,0.0,0.0,0.0,0.0,0.0,0.0,0.0,0.0,0.0,0.0,0.0,0.0,0.0,0.0,0.0,0.0,0.0,0.0,0.0,0.0,0.0,0.0,0.0,0.0,0.0,0.0
0.6305081995786725,0.4952747118277875,-0.09129328794642072,-0.4199988914923452,0.014996338829930608,0.15415642608253363,0.21112617454895213,0.2201080205475627,0.21701231235808807,0.20698688106020846,0.21568608377866882,0.19185970105395952,0.18850345812150293,0.16461890334617812,0.1526922490409849,0.13052192147340247,0.14084635195398157,0.13924597198050337,0.10864399029449091,0.11228439624189421,0.07327529338676474,0.06682233957865179,0.058756900388630205,0.04738039152823533,0.05150154603112696,0.06429434614572412,0.06867871105940243,0.0868804931088406,0.12061759013053559,0.1442639840830169,0.15611860012792741,0.17669622080583477,0.21796601010321173,0.19790303095338943,0.2139228536426293,0.21988678119565358,0.2021254312750746,0.1948194146917269,0.19284207700825468,0.16714024339916445,0.1758171220317397,0.1812729002077902,0.1647055296579231,0.16370798629146668,0.1509316539857841,0.15371406102931048,0.15495882365452068,0.18712884969793134,0.20236479536765392,0.20065747380967983,0.21959397337483835,0.2352375458067106,0.25270279394673156,0.23266998705091643,0.21613960769559756,0.23556613714607758,0.22086492043648856,0.22328682381781642,0.21546909997437697,0.22644381569958943,0.23568190026702576,0.2858849516432775,0.31379739866786477,0.43218590275409297,0.5487394452620098,0.0,0.0,0.0,0.0,0.0,0.0,0.0,0.0,0.0,0.0,0.0,0.0,0.0,0.0,0.0,0.0,0.0,0.0,0.0,0.0,0.0,0.0,0.0,0.0,0.0,0.0,0.0,0.0,0.0,0.0,0.0,0.0,0.0,0.0,0.0,0.0,0.0,0.0,0.0,0.0,0.0,0.0,0.0,0.0,0.0,0.0,0.0,0.0,0.0,0.0,0.0,0.0,0.0,0.0,0.0,0.0,0.0,0.0,0.0,0.0,0.0,0.0,0.0,0.0,0.0,0.0,0.0,0.0,0.0,0.0,0.0,0.0,0.0,0.0,0.0,0.0,0.0,0.0,0.0,0.0,0.0,0.0,0.0,0.0,0.0
0.5487394452620098,0.511330980894489,0.051620924386294946,-0.2596297784032494,-0.3455520738706953,-0.02842315564273249,0.09705925841803967,0.17960105326401457,0.16283151748502975,0.18861928236304482,0.20400985950948092,0.2158616831670077,0.2447039082667481,0.21536242526715257,0.21501382236792227,0.20949691190909264,0.16806736634602465,0.1898613476581533,0.16893806642181797,0.14803596442966102,0.13229535175517745,0.15590824735976075,0.10780376338944186,0.1110387925829996,0.10751912388519562,0.12801630584220977,0.09392742350259477,0.10779948660857394,0.11495401678111745,0.1393245058858299,0.13477619973725824,0.1389130595461445,0.18421146986557427,0.20744493551907933,0.21716267914603446,0.27489088151992175,0.31398206818441227,0.3429819642863999,0.35163608154802983,0.37241240658709723,0.3916350428510803,0.3597379122888276,0.3399448397604189,0.3630074671842134,0.32637626456130026,0.3479567062516659,0.2858895607167064,0.3025100880492443,0.3038069800614689,0.32223101783932456,0.3543431439972596,0.4342999770234475,0.5056810813027423,0.5906763589621801,0.5815916467147569,0.17248958719428495,-0.19746021471623162,-0.1933360397070755,0.16946423384700135,0.25691482611178973,0.2963087764102197,0.2996079228715135,0.3163699091098258,0.3209563066420669,0.3253243921644161,0.0,0.0,0.0,0.0,0.0,0.0,0.0,0.0,0.0,0.0,0.0,0.0,0.0,0.0,0.0,0.0,0.0,0.0,0.0,0.0,0.0,0.0,0.0,0.0,0.0,0.0,0.0,0.0,0.0,0.0,0.0,0.0,0.0,0.0,0.0,0.0,0.0,0.0,0.0,0.0,0.0,0.0,0.0,0.0,0.0,0.0,0.0,0.0,0.0,0.0,0.0,0.0,0.0,0.0,0.0,0.0,0.0,0.0,0.0,0.0,0.0,0.0,0.0,0.0,0.0,0.0,0.0,0.0,0.0,0.0,0.0,0.0,0.0,0.0,0.0,0.0,0.0,0.0,0.0,0.0,0.0,0.0,0.0,0.0,0.0
0.5906763589621801,0.5815916467147569,0.17248958719428495,-0.19746021471623162,-0.1933360397070755,0.16946423384700135,0.25691482611178973,0.2963087764102197,0.2996079228715135,0.3163699091098258,0.3209563066420669,0.3253243921644161,0.3072504857471421,0.3248307576728392,0.3028603697786015,0.31993994304743256,0.2632642138319738,0.2524459113269172,0.24303555955287445,0.20596312863087027,0.2010236882995125,0.12565935722097363,-0.1585770704976121,-0.1595243875171348,0.11939307657974155,0.08688129530387731,0.07448814499893733,-0.16728791375230478,0.09641654031026642,0.12735075630591025,0.18700954271922154,0.15066039543954934,0.21143784746123823,0.29758570168273085,0.4176681806475187,0.5819569865628038,0.7528706407127559,0.5903374907738714,-0.016716222573228457,-0.22063639110059227,0.18536983437880122,0.2357644952469863,0.23989852983209925,0.24564965603031355,0.2291177533719609,0.20570772776012647,0.21303991820797366,0.21012112594795918,0.1952633416339825,0.19924788956647183,0.19987712237036223,0.1749523964311413,0.17063277243743885,0.13566528355942728,0.1401328088509559,0.11740014166194708,0.11533220335694287,0.12539739775655434,0.14931735757368877,0.12045438484550988,0.10376053962324633,0.11633618710407374,0.12913904869256054,0.14901458354893554,0.18280760513818417,0.0,0.0,0.0,0.0,0.0,0.0,0.0,0.0,0.0,0.0,0.0,0.0,0.0,0.0,0.0,0.0,0.0,0.0,0.0,0.0,0.0,0.0,0.0,0.0,0.0,0.0,0.0,0.0,0.0,0.0,0.0,0.0,0.0,0.0,0.0,0.0,0.0,0.0,0.0,0.0,0.0,0.0,0.0,0.0,0.0,0.0,0.0,0.0,0.0,0.0,0.0,0.0,0.0,0.0,0.0,0.0,0.0,0.0,0.0,0.0,0.0,0.0,0.0,0.0,0.0,0.0,0.0,0.0,0.0,0.0,0.0,0.0,0.0,0.0,0.0,0.0,0.0,0.0,0.0,0.0,0.0,0.0,0.0,0.0,0.0
0.7528706407127559,0.5903374907738714,-0.016716222573228457,-0.22063639110059227,0.18536983437880122,0.2357644952469863,0.23989852983209925,0.24564965603031355,0.2291177533719609,0.20570772776012647,0.21303991820797366,0.21012112594795918,0.1952633416339825,0.19924788956647183,0.19987712237036223,0.1749523964311413,0.17063277243743885,0.13566528355942728,0.1401328088509559,0.11740014166194708,0.11533220335694287,0.12539739775655434,0.14931735757368877,0.12045438484550988,0.10376053962324633,0.11633618710407374,0.12913904869256054,0.14901458354893554,0.18280760513818417,0.18609315408580768,0.18280406066803642,0.17123771081204714,0.16336231716246397,0.15576452784538714,0.1552839797286442,0.14654295215857804,0.1312526239838216,0.11966827929934096,0.09641003205369968,0.06660500896069076,0.08493991485829414,0.08134648732746742,0.09512996515160137,0.07843783317848785,0.0637385774403797,0.08350029178036375,0.11550378839763598,0.12385772125218263,0.12223022695939473,0.11061708210830634,0.13173764194228774,0.14969819937723072,0.1491119997474439,0.152188826925054,0.14183146460115523,0.09410606515383158,0.10641477085138358,0.12235217013208775,0.112855800835868,0.1308930334683031,0.10809397520842762,0.12305929170093101,0.07494751093764589,0.0782464622335231,0.09021858168182309,0.0,0.0,0.0,0.0,0.0,0.0,0.0,0.0,0.0,0.0,0.0,0.0,0.0,0.0,0.0,0.0,0.0,0.0,0.0,0.0,0.0,0.0,0.0,0.0,0.0,0.0,0.0,0.0,0.0,0.0,0.0,0.0,0.0,0.0,0.0,0.0,0.0,0.0,0.0,0.0,0.0,0.0,0.0,0.0,0.0,0.0,0.0,0.0,0.0,0.0,0.0,0.0,0.0,0.0,0.0,0.0,0.0,0.0,0.0,0.0,0.0,0.0,0.0,0.0,0.0,0.0,0.0,0.0,0.0,0.0,0.0,0.0,0.0,0.0,0.0,0.0,0.0,0.0,0.0,0.0,0.0,0.0,0.0,0.0,0.0
0.7011465527540621,0.41681263335714924,-0.21812600494513376,-0.2142141913156957,-0.12175583353617388,0.04216339973225588,0.14938651313837786,0.18967506437707898,0.1920961188317144,0.1737530203647852,0.1637109255037303,0.1756534136809165,0.16344938004642312,0.17325109146307943,0.17601542348918428,0.1666239317186434,0.1673007731437466,0.15583611423943466,0.1732510858888805,-0.18718346936665686,0.1614401003579412,0.17838257706489485,0.16957039822438905,0.17262119741536114,0.1960993112970367,0.18875434769499388,0.20699989224804288,0.2183822720278741,0.21608129298999967,0.2291639886151678,0.23713625180331385,0.26393598703212073,0.3010295288458538,0.33133705414774856,0.3292323967323018,0.35795404850412094,0.36794699411938364,0.3763041645605611,0.3488476233085873,0.34880870508004874,0.33516997722806435,0.342106837119858,0.3337253349917937,0.33565264386592886,0.34958872184658174,0.3345076589693794,0.3211584361995321,0.31978075085732877,0.3303588889175638,0.3033154772769301,0.27793780583305683,0.26445919883846586,0.2594398501188991,0.283364177495168,0.2763938247545466,0.2607194632899269,0.37303121120374133,0.43898578121727155,-0.1054065901301579,-0.19549174584354928,-0.19701138998903353,-0.19883590497742976,0.014379274277450192,0.17777770885926608,0.20765345273050587,0.0,0.0,0.0,0.0,0.0,0.0,0.0,0.0,0.0,0.0,0.0,0.0,0.0,0.0,0.0,0.0,0.0,0.0,0.0,0.0,0.0,0.0,0.0,0.0,0.0,0.0,0.0,0.0,0.0,0.0,0.0,0.0,0.0,0.0,0.0,0.0,0.0,0.0,0.0,0.0,0.0,0.0,0.0,0.0,0.0,0.0,0.0,0.0,0.0,0.0,0.0,0.0,0.0,0.0,0.0,0.0,0.0,0.0,0.0,0.0,0.0,0.0,0.0,0.0,0.0,0.0,0.0,0.0,0.0,0.0,0.0,0.0,0.0,0.0,0.0,0.0,0.0,0.0,0.0,0.0,0.0,0.0,0.0,0.0,0.0
0.37303121120374133,0.43898578121727155,-0.1054065901301579,-0.19549174584354928,-0.19701138998903353,-0.19883590497742976,0.014379274277450192,0.17777770885926608,0.20765345273050587,0.22879371721581507,0.23610313836394153,0.2501197221383298,0.26916371528788696,0.2778823732251584,0.3070637305340222,0.2764115388922639,0.26456200073537106,0.2715374271990685,0.24608977884251107,0.21558216777978573,0.19541370253055307,0.16851202945147578,0.16052800763617558,0.13900675548268518,0.1295974868844407,0.12547833644894216,0.11811782320403638,0.12290938507695172,0.15866380459023782,0.1467800969630438,0.1607545998029746,0.19205247239064505,0.2560636165247345,0.27760169135396084,0.27718126087321554,0.28898724180668434,0.3113148455356525,0.30998745425303753,0.32431250004294043,0.30985645303346654,0.3264311849155714,0.31421928664262455,0.3108128697685464,0.2854437710620695,0.2722830417318939,0.27986579188458155,0.27741951559045186,0.268349659435242,0.2611871856837679,0.25591687689145376,0.24397737171670095,0.2629481542234356,0.25641427101668757,0.24998989838722113,0.26586999537000755,0.32453930345830745,0.5302206468141285,0.6145802917992483,0.38960333050649704,-0.20626461604855856,-0.18527377324462024,-0.010568257115682728,0.21873551445533643,0.2838943961146253,0.3301742459734181,0.0,0.0,0.0,0.0,0.0,0.0,0.0,0.0,0.0,0.0,0.0,0.0,0.0,0.0,0.0,0.0,0.0,0.0,0.0,0.0,0.0,0.0,0.0,0.0,0.0,0.0,0.0,0.0,0.0,0.0,0.0,0.0,0.0,0.0,0.0,0.0,0.0,0.0,0.0,0.0,0.0,0.0,0.0,0.0,0.0,0.0,0.0,0.0,0.0,0.0,0.0,0.0,0.0,0.0,0.0,0.0,0.0,0.0,0.0,0.0,0.0,0.0,0.0,0.0,0.0,0.0,0.0,0.0,0.0,0.0,0.0,0.0,0.0,0.0,0.0,0.0,0.0,0.0,0.0,0.0,0.0,0.0,0.0,0.0,0.0
0.6145802917992483,0.38960333050649704,-0.20626461604855856,-0.18527377324462024,-0.010568257115682728,0.21873551445533643,0.2838943961146253,0.3301742459734181,0.3353606786335194,0.3267977179998511,0.31473803525175303,0.30088782961888094,0.3057503701551212,0.2985583937086459,0.2998121361423425,0.25652473406171805,0.2541341999813273,0.23452398604566924,0.23186052370806176,0.20853243292869997,0.1952858780539147,0.18697766133127589,-0.14624023394262153,-0.144724523464766,0.1949384144780346,-0.1423687345337432,0.1934468880192158,0.1975343236084102,0.24246952579930411,0.2821304003921213,0.31482679823714654,0.37133754378482065,0.4140811836628383,0.46016137076217933,0.4395223403647428,0.45129381857524187,0.4527590237325221,0.4456320751040263,0.43333379575429753,0.42953658614081625,0.4342389393143331,0.39958610806053935,0.3939309702413126,0.38992222062373316,0.3790052278344379,0.3748399895878055,0.44918950670751673,0.5798216882452668,0.6812703963931193,0.6355962099825377,-0.15023668914384028,-0.151856450365253,-0.13318455655653136,-0.15574238382776742,0.2607040709772004,0.3010061716390969,0.3069850383504645,0.31455508726581033,0.35108436165335555,0.37899856350156813,0.3949009912214848,0.36804956675582284,0.34631274678441093,0.32799708756489676,0.3096984461989748,0.0,0.0,0.0,0.0,0.0,0.0,0.0,0.0,0.0,0.0,0.0,0.0,0.0,0.0,0.0,0.0,0.0,0.0,0.0,0.0,0.0,0.0,0.0,0.0,0.0,0.0,0.0,0.0,0.0,0.0,0.0,0.0,0.0,0.0,0.0,0.0,0.0,0.0,0.0,0.0,0.0,0.0,0.0,0.0,0.0,0.0,0.0,0.0,0.0,0.0,0.0,0.0,0.0,0.0,0.0,0.0,0.0,0.0,0.0,0.0,0.0,0.0,0.0,0.0,0.0,0.0,0.0,0.0,0.0,0.0,0.0,0.0,0.0,0.0,0.0,0.0,0.0,0.0,0.0,0.0,0.0,0.0,0.0,0.0,0.0
0.6812703963931193,0.6355962099825377,-0.15023668914384028,-0.151856450365253,-0.13318455655653136,-0.15574238382776742,0.2607040709772004,0.3010061716390969,0.3069850383504645,0.31455508726581033,0.35108436165335555,0.37899856350156813,0.3949009912214848,0.36804956675582284,0.34631274678441093,0.32799708756489676,0.3096984461989748,0.31022761850174724,0.28687101847620566,0.26698118026822265,0.23005811108644994,0.20857847859242262,0.2213460594193692,0.15386411511505366,0.1531068421064289,0.15755362124917052,0.14498932248577748,0.16326569927161588,0.17307643291227698,0.20347309207361006,0.23565528745717157,0.27303819109790267,0.3036550884243368,0.3326275755962403,0.3496950221679671,0.36681171325483825,0.37542257439043675,0.389187275748625,0.38929322613823414,0.38597833749943755,0.391187542898496,0.3895203640344808,0.44076894072637895,0.5517454698325721,0.6882447221534854,0.7579538116267531,0.5369659063655462,-0.2516076106448082,-0.1859442545829615,-0.2572598781175931,0.17531138135582056,0.2316786690554333,0.2382813737490116,0.2327422027259882,0.22875712557786274,0.21780436948627593,0.23066727246827445,0.24344112056805361,0.23222004649344663,0.2329108314743443,0.22160522991274423,0.2307897621997095,0.22971803978805536,0.22011290443394443,0.21565882244887247,0.0,0.0,0.0,0.0,0.0,0.0,0.0,0.0,0.0,0.0,0.0,0.0,0.0,0.0,0.0,0.0,0.0,0.0,0.0,0.0,0.0,0.0,0.0,0.0,0.0,0.0,0.0,0.0,0.0,0.0,0.0,0.0,0.0,0.0,0.0,0.0,0.0,0.0,0.0,0.0,0.0,0.0,0.0,0.0,0.0,0.0,0.0,0.0,0.0,0.0,0.0,0.0,0.0,0.0,0.0,0.0,0.0,0.0,0.0,0.0,0.0,0.0,0.0,0.0,0.0,0.0,0.0,0.0,0.0,0.0,0.0,0.0,0.0,0.0,0.0,0.0,0.0,0.0,0.0,0.0,0.0,0.0,0.0,0.0,0.0
0.7579538116267531,0.5369659063655462,-0.2516076106448082,-0.1859442545829615,-0.2572598781175931,0.17531138135582056,0.2316786690554333,0.2382813737490116,0.2327422027259882,0.22875712557786274,0.21780436948627593,0.23066727246827445,0.24344112056805361,0.23222004649344663,0.2329108314743443,0.22160522991274423,0.2307897621997095,0.22971803978805536,0.22011290443394443,0.21565882244887247,0.2112405160654054,0.174398147746495,0.15470126817901828,0.13506881996257739,0.12405348607371683,0.13362520932931882,0.14157396043445772,0.14961458825922544,0.16800607176500595,0.20358870665580406,0.220477758799794,0.2460192770337148,0.273378855961134,0.26666841102151323,0.26690203240988347,0.2689503519893109,0.2642647319282617,0.27847454148781975,0.26884912491665425,0.2763958461094514,0.2891427293564881,0.26948190308552733,0.284051073136036,0.3396727322103053,0.42095137405641525,0.5774305625631018,0.9577718772109245,0.5844243670553974,-0.055582481175783245,-0.2838177325482437,-0.16011917163044836,0.0728428473263113,0.14506969991654728,0.1744980409542173,0.17652574437164748,0.1768036171642723,0.17192913463108353,0.17046166119851927,0.15703415535628015,0.16242084827567035,0.16270822300621327,0.17499717270644385,0.17366358718831018,0.1655528655300553,0.16776334404529913,0.0,0.0,0.0,0.0,0.0,0.0,0.0,0.0,0.0,0.0,0.0,0.0,0.0,0.0,0.0,0.0,0.0,0.0,0.0,0.0,0.0,0.0,0.0,0.0,0.0,0.0,0.0,0.0,0.0,0.0,0.0,0.0,0.0,0.0,0.0,0.0,0.0,0.0,0.0,0.0,0.0,0.0,0.0,0.0,0.0,0.0,0.0,0.0,0.0,0.0,0.0,0.0,0.0,0.0,0.0,0.0,0.0,0.0,0.0,0.0,0.0,0.0,0.0,0.0,0.0,0.0,0.0,0.0,0.0,0.0,0.0,0.0,0.0,0.0,0.0,0.0,0.0,0.0,0.0,0.0,0.0,0.0,0.0,0.0,0.0
0.42095137405641525,0.5774305625631018,0.9577718772109245,0.5844243670553974,-0.055582481175783245,-0.2838177325482437,-0.16011917163044836,0.0728428473263113,0.14506969991654728,0.1744980409542173,0.17652574437164748,0.1768036171642723,0.17192913463108353,0.17046166119851927,0.15703415535628015,0.16242084827567035,0.16270822300621327,0.17499717270644385,0.17366358718831018,0.1655528655300553,0.16776334404529913,0.15466834147786251,0.13140175441478538,0.13556709035355868,0.14495333405524102,0.13393085726100135,0.11617556156637229,0.10707164650481883,0.110039957586466,0.11312009663323647,0.13511253192720457,0.1589288467133652,0.1811516894118045,0.18810910824506194,0.20885243548270147,0.22116303508217972,0.23358264339871546,0.22389047431241244,0.2040439256345346,0.1945441136850686,0.20051042623440304,0.2065536672257316,0.2690602769233091,0.40510940820202024,0.5873457112376743,0.8636063847166704,0.8630286305032281,-0.11850334805303514,-0.23533001515510582,-0.09073113683754097,0.09655358546578732,0.16931590309888547,0.17884113088853443,0.16445096393646755,0.16717517073098254,0.16651986418567816,0.15737102966826924,0.13974072272380608,0.11022227685775271,0.10129664630855573,0.10613797958224339,0.1025392103716426,0.08709138519408965,0.06663884342418216,0.042898586202935136,0.0,0.0,0.0,0.0,0.0,0.0,0.0,0.0,0.0,0.0,0.0,0.0,0.0,0.0,0.0,0.0,0.0,0.0,0.0,0.0,0.0,0.0,0.0,0.0,0.0,0.0,0.0,0.0,0.0,0.0,0.0,0.0,0.0,0.0,0.0,0.0,0.0,0.0,0.0,0.0,0.0,0.0,0.0,0.0,0.0,0.0,0.0,0.0,0.0,0.0,0.0,0.0,0.0,0.0,0.0,0.0,0.0,0.0,0.0,0.0,0.0,0.0,0.0,0.0,0.0,0.0,0.0,0.0,0.0,0.0,0.0,0.0,0.0,0.0,0.0,0.0,0.0,0.0,0.0,0.0,0.0,0.0,0.0,0.0,0.0
0.8636063847166704,0.8630286305032281,-0.11850334805303514,-0.23533001515510582,-0.09073113683754097,0.09655358546578732,0.16931590309888547,0.17884113088853443,0.16445096393646755,0.16717517073098254,0.16651986418567816,0.15737102966826924,0.13974072272380608,0.11022227685775271,0.10129664630855573,0.10613797958224339,0.1025392103716426,0.08709138519408965,0.06663884342418216,0.042898586202935136,0.021005216661584048,0.02147383176840321,0.02038626606789297,0.03313050135642878,0.04604196843133498,0.07963528428180638,0.10486477551284858,0.15249823628070588,0.17298145958345842,0.18170024443232172,0.21112920085340192,0.24759990538167365,0.2466814622461675,0.28527843672392666,0.2847781097927662,0.2708133591636683,0.2809784118025982,0.29134330728884617,0.2933573886396132,0.27675957456334477,0.2723025391947961,0.28168512380312877,0.25020887760158567,0.2393837376486736,0.2423596862697565,0.25399447646372897,0.2503460059166466,0.2604488977009674,0.23985091669370848,0.25005451624496805,0.26369463565487977,0.29271121857202986,0.340498052210732,0.34892462690932785,0.3658147212334677,0.34841508673806754,0.3479638634764746,0.3558835836989422,0.36188607224418723,0.37618898563963443,0.41755300894344144,0.49277417312330574,1.0,0.746326719167667,0.46143410146667385,0.0,0.0,0.0,0.0,0.0,0.0,0.0,0.0,0.0,0.0,0.0,0.0,0.0,0.0,0.0,0.0,0.0,0.0,0.0,0.0,0.0,0.0,0.0,0.0,0.0,0.0,0.0,0.0,0.0,0.0,0.0,0.0,0.0,0.0,0.0,0.0,0.0,0.0,0.0,0.0,0.0,0.0,0.0,0.0,0.0,0.0,0.0,0.0,0.0,0.0,0.0,0.0,0.0,0.0,0.0,0.0,0.0,0.0,0.0,0.0,0.0,0.0,0.0,0.0,0.0,0.0,0.0,0.0,0.0,0.0,0.0,0.0,0.0,0.0,0.0,0.0,0.0,0.0,0.0,0.0,0.0,0.0,0.0,0.0,0.0
0.41755300894344144,0.49277417312330574,1.0,0.746326719167667,0.46143410146667385,-0.36058538307044824,-0.3594489608786738,-0.35890018563729675,0.17939870762410925,0.2728384223188151,0.3025649034572086,0.30451127822935475,0.2923925823019562,0.2970120047075129,0.2910663743801716,0.28484832222287065,0.30402973213664575,0.3127582304610427,0.29397856690135354,0.30070159865269164,0.28852556026086007,0.2916596920057364,0.27766205544286127,0.2824479575180696,0.24964706688710034,0.2425153714212254,0.24398613392209534,0.2557900481289112,0.26769381470467246,0.2609180174010436,0.2645329940827439,0.27171945858780927,0.2842016400503995,0.3139562145606946,0.3285252798029839,0.3552632294081438,0.36683585142964803,0.37692237981807614,0.3872374411992182,0.4080386155480596,0.3983125188858135,0.3888203659138078,0.39664963903302497,0.3961616867371462,0.3770965826016275,0.39071525271336977,0.3703579738132594,0.33822938386130014,0.3216591718042831,0.3052511456366084,0.2975330513478811,0.29165040034200856,0.2910010219109543,0.26821987043474044,0.2625901813848154,0.26554275655114695,0.24799947366616945,0.2800010030972289,0.2709438215457293,0.2754852510466629,0.27308668485828363,0.2859323286180621,0.30886154105454244,0.4238695984377879,0.9351160197186088,0.0,0.0,0.0,0.0,0.0,0.0,0.0,0.0,0.0,0.0,0.0,0.0,0.0,0.0,0.0,0.0,0.0,0.0,0.0,0.0,0.0,0.0,0.0,0.0,0.0,0.0,0.0,0.0,0.0,0.0,0.0,0.0,0.0,0.0,0.0,0.0,0.0,0.0,0.0,0.0,0.0,0.0,0.0,0.0,0.0,0.0,0.0,0.0,0.0,0.0,0.0,0.0,0.0,0.0,0.0,0.0,0.0,0.0,0.0,0.0,0.0,0.0,0.0,0.0,0.0,0.0,0.0,0.0,0.0,0.0,0.0,0.0,0.0,0.0,0.0,0.0,0.0,0.0,0.0,0.0,0.0,0.0,0.0,0.0,0.0
0.30886154105454244,0.4238695984377879,0.9351160197186088,0.6650833020460668,0.29389703973103143,-0.4331257712758573,-0.43425694739400444,0.061494698673585244,0.2099332754351183,0.27085564849869515,0.2921456523708995,0.29263331821235183,0.26551270257212756,0.2501185238226205,0.23793308019058335,0.20505671098017958,0.22158178340220958,0.19182978293868852,0.167092300093537,0.16277164678516484,0.14983614207279056,0.11634296707958756,0.08623687318461494,0.08858893282875295,0.08923798635641768,0.09845558856505161,0.08720659344113137,0.09139613119750786,0.09395090065527979,0.11539443068370502,0.12668972022319092,0.15690408937743291,0.1530737803750196,0.1681902416416624,0.1885944201376351,0.23309680612416164,0.23847650246385965,0.23892259929179155,0.23615261010834895,0.23871872416980236,0.2346643388627455,0.20861372279571327,0.2118397073520824,0.20162086327457765,0.18992166505839078,0.15281725965780094,0.16379299717523726,0.15790708865710246,0.15908324098019436,0.16731882519480334,0.18090144934279595,0.1844461441341619,0.18991051724714597,0.18703467543042687,0.20144609531669327,0.1699050035698757,0.19152254088422033,0.1876763688381933,0.1856991821151261,0.18557925554100416,0.20097567618365306,0.18231480230252275,0.17572417244293867,0.15555377470302237,0.15767555187991233,0.0,0.0,0.0,0.0,0.0,0.0,0.0,0.0,0.0,0.0,0.0,0.0,0.0,0.0,0.0,0.0,0.0,0.0,0.0,0.0,0.0,0.0,0.0,0.0,0.0,0.0,0.0,0.0,0.0,0.0,0.0,0.0,0.0,0.0,0.0,0.0,0.0,0.0,0.0,0.0,0.0,0.0,0.0,0.0,0.0,0.0,0.0,0.0,0.0,0.0,0.0,0.0,0.0,0.0,0.0,0.0,0.0,0.0,0.0,0.0,0.0,0.0,0.0,0.0,0.0,0.0,0.0,0.0,0.0,0.0,0.0,0.0,0.0,0.0,0.0,0.0,0.0,0.0,0.0,0.0,0.0,0.0,0.0,0.0,0.0
0.3428489364676723,0.5651060433981668,0.8401808542345554,0.315268772688671,-0.2645542997072843,-0.26700589885141723,-0.07490517776136893,0.08959702977418395,0.14961925129705564,0.15645213578032657,0.16138558410082046,0.1798203954380859,0.175887534277185,0.15131435303001783,0.1385887413307528,0.13260054521297784,0.1179851122132611,0.12210131667091612,0.11078460967981606,0.082340216079409,0.07096112622269081,0.0732426317327619,0.07552586387377833,0.08295023121114486,0.0904009591276337,0.10643459899261182,0.13789828257843156,0.1284068085723523,0.12923924448000895,0.13527808522977094,0.14140517955378543,0.13566582942489777,0.15053778718774619,0.18602774260566307,0.20625331331644875,0.2248912469935376,0.24194551930604627,0.2420382731368867,0.2405518583013138,0.24090464127768477,0.2191703043095633,0.23686970472825017,0.2341859049659849,0.22478638957189476,0.2001208934667368,0.19607118503701065,0.22117455058924676,0.23953413867635978,0.21525199197851136,0.2542732656593357,0.24550315441071113,0.24703337318785515,0.2554315761103342,0.2655552145386299,0.26371562471424886,0.28578287527697194,0.34199120240517344,0.46478999206169663,0.5516184804680819,0.5084584178570042,-0.06632537023066093,-0.3370780637796671,-0.12609106486886,0.07104301550474071,0.14667918842896044,0.0,0.0,0.0,0.0,0.0,0.0,0.0,0.0,0.0,0.0,0.0,0.0,0.0,0.0,0.0,0.0,0.0,0.0,0.0,0.0,0.0,0.0,0.0,0.0,0.0,0.0,0.0,0.0,0.0,0.0,0.0,0.0,0.0,0.0,0.0,0.0,0.0,0.0,0.0,0.0,0.0,0.0,0.0,0.0,0.0,0.0,0.0,0.0,0.0,0.0,0.0,0.0,0.0,0.0,0.0,0.0,0.0,0.0,0.0,0.0,0.0,0.0,0.0,0.0,0.0,0.0,0.0,0.0,0.0,0.0,0.0,0.0,0.0,0.0,0.0,0.0,0.0,0.0,0.0,0.0,0.0,0.0,0.0,0.0,0.0
0.5516184804680819,0.5084584178570042,-0.06632537023066093,-0.3370780637796671,-0.12609106486886,0.07104301550474071,0.14667918842896044,0.17774060973618472,0.17791790095075882,0.17286356803951133,0.1677216162731395,0.17447105697337592,0.15723897027174344,0.15534613800211006,0.18247804192020942,0.1822517157701115,0.15297024385668032,0.15445863254608033,0.15596584096565674,0.13528489391068627,0.11122325856049359,0.1042966932621527,0.09058724284875427,0.06326610659211129,0.05993718822551301,0.04813640387074219,0.046668397730206264,0.043576156664353854,0.05766385085158446,0.08380988629845017,0.11689238069224865,0.15520696785528384,0.21072043788570705,0.21165939282810586,0.22638472368682538,0.25660652707271076,0.2698544158286113,0.28321677993908806,0.2693475027189322,0.2829294958255409,0.2641434955001334,0.24032617053961217,0.24052183661562088,0.247631482779041,0.244554895471571,0.24836997482187256,0.2436830139319716,0.24586048071395952,0.26001381911154475,0.26220079469831153,0.26436619241534437,0.24940103713203363,0.24975509206115476,0.23635404009041824,0.258734824574142,0.2502234108255604,0.26719013712354317,0.35404131748437384,0.5637267679347445,0.5954382427054546,0.1910888671989352,-0.46307963639669075,-0.21355084414175834,0.013422100738495157,0.16659774956508533,0.0,0.0,0.0,0.0,0.0,0.0,0.0,0.0,0.0,0.0,0.0,0.0,0.0,0.0,0.0,0.0,0.0,0.0,0.0,0.0,0.0,0.0,0.0,0.0,0.0,0.0,0.0,0.0,0.0,0.0,0.0,0.0,0.0,0.0,0.0,0.0,0.0,0.0,0.0,0.0,0.0,0.0,0.0,0.0,0.0,0.0,0.0,0.0,0.0,0.0,0.0,0.0,0.0,0.0,0.0,0.0,0.0,0.0,0.0,0.0,0.0,0.0,0.0,0.0,0.0,0.0,0.0,0.0,0.0,0.0,0.0,0.0,0.0,0.0,0.0,0.0,0.0,0.0,0.0,0.0,0.0,0.0,0.0,0.0,0.0
0.5954382427054546,0.1910888671989352,-0.46307963639669075,-0.21355084414175834,0.013422100738495157,0.16659774956508533,0.2186601328395884,0.22261392490911933,0.22975373922790995,0.2144695345307185,0.2126729541034861,0.2055876059334775,0.2103243540797831,0.20639574763464835,0.21261953868958236,0.19141651681413335,0.16672924180003526,0.15908138117200027,0.13259983826530886,0.1300232302504035,0.11718596964868623,0.107772911447536,0.08812484322898163,0.07021652759377779,0.08311196244065147,0.10118783163468785,0.11249214421891088,0.120453111627156,0.13533425320141318,0.14689087491148775,0.1688031523469832,0.2096236238664719,0.2368887615995115,0.2694030173241063,0.26102888987013556,0.2715835217699618,0.27201643561611677,0.2777089534812142,0.25106304199690466,0.24163662645323322,0.23062767313628063,0.2094867457023082,0.19871570373693254,0.198307748285415,0.19971024885340405,0.19778751859224428,0.19423874247091139,0.19076211652078826,0.23519699056945476,0.3822176310027834,0.8334683411525162,0.8335696616196756,0.6115032987816446,0.10914023567472866,-0.28732002820435526,-0.11819293259465768,0.06110662838944401,0.12241688701688531,0.12898014035197292,0.1337842678212651,0.13171160581517694,0.13815143290941073,0.11893230894729254,0.12362151503370829,0.11804632559327465,0.0,0.0,0.0,0.0,0.0,0.0,0.0,0.0,0.0,0.0,0.0,0.0,0.0,0.0,0.0,0.0,0.0,0.0,0.0,0.0,0.0,0.0,0.0,0.0,0.0,0.0,0.0,0.0,0.0,0.0,0.0,0.0,0.0,0.0,0.0,0.0,0.0,0.0,0.0,0.0,0.0,0.0,0.0,0.0,0.0,0.0,0.0,0.0,0.0,0.0,0.0,0.0,0.0,0.0,0.0,0.0,0.0,0.0,0.0,0.0,0.0,0.0,0.0,0.0,0.0,0.0,0.0,0.0,0.0,0.0,0.0,0.0,0.0,0.0,0.0,0.0,0.0,0.0,0.0,0.0,0.0,0.0,0.0,0.0,0.0
0.23519699056945476,0.3822176310027834,0.8334683411525162,0.8335696616196756,0.6115032987816446,0.10914023567472866,-0.28732002820435526,-0.11819293259465768,0.06110662838944401,0.12241688701688531,0.12898014035197292,0.1337842678212651,0.13171160581517694,0.13815143290941073,0.11893230894729254,0.12362151503370829,0.11804632559327465,0.10050378119519161,0.09834278124475185,0.09789650041508924,0.09404245962652577,0.08678459309353784,0.072708429633866,0.05865286969559839,0.041202644631361716,0.03915877122827952,0.026888902862561653,0.0163577841453768,-0.014649326600998065,-0.019988549154452036,-0.008201574557850888,0.008753869873671664,0.036010511896753514,0.0787010354986831,0.10094272240093655,0.14033806728522372,0.17467519439198215,0.19883120219350178,0.21451818615497598,0.2302831179544625,0.28885124852346566,0.4192749366401489,0.602754004244305,0.6376266445336245,-0.0246923842846527,-0.1400845078989193,-0.040096926246855236,0.09241664928515138,0.1292932794697095,0.15428154443132114,0.1451733871105212,0.14640971513665818,0.13236303899117144,0.13380106765014707,0.12167698254681591,0.14042890257448168,0.13879215307727885,0.12702419057470826,0.12734455077103732,0.16709903702623718,0.10273605675563847,0.10002631607100138,0.09573835004647423,0.1103796056433494,0.11147905577238423,0.0,0.0,0.0,0.0,0.0,0.0,0.0,0.0,0.0,0.0,0.0,0.0,0.0,0.0,0.0,0.0,0.0,0.0,0.0,0.0,0.0,0.0,0.0,0.0,0.0,0.0,0.0,0.0,0.0,0.0,0.0,0.0,0.0,0.0,0.0,0.0,0.0,0.0,0.0,0.0,0.0,0.0,0.0,0.0,0.0,0.0,0.0,0.0,0.0,0.0,0.0,0.0,0.0,0.0,0.0,0.0,0.0,0.0,0.0,0.0,0.0,0.0,0.0,0.0,0.0,0.0,0.0,0.0,0.0,0.0,0.0,0.0,0.0,0.0,0.0,0.0,0.0,0.0,0.0,0.0,0.0,0.0,0.0,0.0,0.0
0.602754004244305,0.6376266445336245,-0.0246923842846527,-0.1400845078989193,-0.040096926246855236,0.09241664928515138,0.1292932794697095,0.15428154443132114,0.1451733871105212,0.14640971513665818,0.13236303899117144,0.13380106765014707,0.12167698254681591,0.14042890257448168,0.13879215307727885,0.12702419057470826,0.12734455077103732,0.16709903702623718,0.10273605675563847,0.10002631607100138,0.09573835004647423,0.1103796056433494,0.11147905577238423,0.1058713760673417,0.1072265551355812,0.11896024667426856,0.1427786006555751,0.16158852873603113,0.18393074256244663,0.218345145838988,0.27166175502388973,0.2669700828309325,0.2760384641881634,0.2817675843778344,0.26363881330543854,0.27461771850395805,0.2685484289636145,0.2813041450125425,0.2769800853635391,0.262394252014148,0.26487087316811225,0.3031880270968207,0.3721969214262318,0.47700105339548177,0.6432096703657263,0.951116597643857,0.34967589843952496,-0.4092023098297036,-0.22156233412866833,-0.037588653049852074,0.17179373357741468,0.2391321237406716,0.27040777121380916,0.29469719246025,0.2915154917302137,0.2950632627389611,0.29510648422660396,0.30020830313134755,0.2915869093834741,0.262421765017282,0.24690609634577548,0.2621421416509449,0.2585811685877631,0.24136009705149816,0.229286294769326,0.0,0.0,0.0,0.0,0.0,0.0,0.0,0.0,0.0,0.0,0.0,0.0,0.0,0.0,0.0,0.0,0.0,0.0,0.0,0.0,0.0,0.0,0.0,0.0,0.0,0.0,0.0,0.0,0.0,0.0,0.0,0.0,0.0,0.0,0.0,0.0,0.0,0.0,0.0,0.0,0.0,0.0,0.0,0.0,0.0,0.0,0.0,0.0,0.0,0.0,0.0,0.0,0.0,0.0,0.0,0.0,0.0,0.0,0.0,0.0,0.0,0.0,0.0,0.0,0.0,0.0,0.0,0.0,0.0,0.0,0.0,0.0,0.0,0.0,0.0,0.0,0.0,0.0,0.0,0.0,0.0,0.0,0.0,0.0,0.0
0.951116597643857,0.34967589843952496,-0.4092023098297036,-0.22156233412866833,-0.037588653049852074,0.17179373357741468,0.2391321237406716,0.27040777121380916,0.29469719246025,0.2915154917302137,0.2950632627389611,0.29510648422660396,0.30020830313134755,0.2915869093834741,0.262421765017282,0.24690609634577548,0.2621421416509449,0.2585811685877631,0.24136009705149816,0.229286294769326,0.20356863563912228,0.23086322673823204,0.21718220363224858,0.23259743642364264,0.25318649173182906,0.2704064815190103,0.2603325434849604,0.29132271327686426,0.3291956693460575,0.35173140667584113,0.3913952372221732,0.39691130226525373,0.4058681009044775,0.3994562171395053,0.4186780713571536,0.40370499872224,0.3613559771057607,0.35826183158137864,0.34142384898755085,0.30740158502792275,0.32111159197564965,0.3568936027083617,0.40788438806013655,0.4928534482803213,0.6732924340017943,0.6996584298063587,0.3651293436191191,-0.20558070203650897,-0.32892700762825905,-0.3296362228663019,0.18707160692905897,0.27788612717132044,0.3119831587400337,0.3201615498247785,0.31783788036937105,0.32042712950987823,0.28181985387308595,0.2857865449587663,0.26741610464438054,0.2711699317766725,0.23213416221985514,0.2033123398515843,0.18131091733548216,0.15589946040459587,0.15615288285841994,0.0,0.0,0.0,0.0,0.0,0.0,0.0,0.0,0.0,0.0,0.0,0.0,0.0,0.0,0.0,0.0,0.0,0.0,0.0,0.0,0.0,0.0,0.0,0.0,0.0,0.0,0.0,0.0,0.0,0.0,0.0,0.0,0.0,0.0,0.0,0.0,0.0,0.0,0.0,0.0,0.0,0.0,0.0,0.0,0.0,0.0,0.0,0.0,0.0,0.0,0.0,0.0,0.0,0.0,0.0,0.0,0.0,0.0,0.0,0.0,0.0,0.0,0.0,0.0,0.0,0.0,0.0,0.0,0.0,0.0,0.0,0.0,0.0,0.0,0.0,0.0,0.0,0.0,0.0,0.0,0.0,0.0,0.0,0.0,0.0
0.6996584298063587,0.3651293436191191,-0.20558070203650897,-0.32892700762825905,-0.3296362228663019,0.18707160692905897,0.27788612717132044,0.3119831587400337,0.3201615498247785,0.31783788036937105,0.32042712950987823,0.28181985387308595,0.2857865449587663,0.26741610464438054,0.2711699317766725,0.23213416221985514,0.2033123398515843,0.18131091733548216,0.15589946040459587,0.15615288285841994,0.13936868012595433,0.1260753677838827,0.11800212105108031,0.12371335513845888,0.12101147858638496,0.16631079061051712,0.17759861039939248,0.2164147033339798,0.23834195608462586,0.24852223342250795,0.2965293658067133,0.3157261448142791,0.31466845343304356,0.3070374987967775,0.30138601192032766,0.29430241548551467,0.3080081391273825,0.28611063172682966,0.30380630672491166,0.2551395822343254,0.266572949878,0.22702113026253073,0.24243639534155959,0.23249241441122073,0.24674318159430533,0.20827792672733636,0.18202895608509462,0.18336747437838,0.23449964654208724,0.23116711884954333,0.2656416381810119,0.2524611659904004,0.24629767808537212,0.29669498519110366,0.2754630369536192,0.291956794862439,0.29317792183110625,0.30132119504682003,0.3283261202538566,0.31606302530954383,0.32261039271149095,0.36161196724449024,0.41082156120477364,0.5385664612163374,0.6764544924178618,0.0,0.0,0.0,0.0,0.0,0.0,0.0,0.0,0.0,0.0,0.0,0.0,0.0,0.0,0.0,0.0,0.0,0.0,0.0,0.0,0.0,0.0,0.0,0.0,0.0,0.0,0.0,0.0,0.0,0.0,0.0,0.0,0.0,0.0,0.0,0.0,0.0,0.0,0.0,0.0,0.0,0.0,0.0,0.0,0.0,0.0,0.0,0.0,0.0,0.0,0.0,0.0,0.0,0.0,0.0,0.0,0.0,0.0,0.0,0.0,0.0,0.0,0.0,0.0,0.0,0.0,0.0,0.0,0.0,0.0,0.0,0.0,0.0,0.0,0.0,0.0,0.0,0.0,0.0,0.0,0.0,0.0,0.0,0.0,0.0
0.6472597814814062,0.88497722119928,-0.07561848197144301,-0.11504211502251699,0.04002463356503441,0.11549411753037336,0.11137812243918624,0.11852319953269047,0.11941037239068271,0.12679851969233477,0.11998027032691286,0.10533886188378652,0.08447612451696741,0.08449100186752448,0.09582915743518934,0.104155024730678,0.0983197631415901,0.06876761379173708,0.07287363168220212,0.07558358231854502,0.07849572459888189,0.06408470936739218,0.06103926781835926,0.058207747939134157,0.04921900005473507,0.04523121107612998,0.06058952684195723,0.07776681680809137,0.09357807008479158,0.11280589950490989,0.12110921987492307,0.12486321461917071,0.14637848672924714,0.13306569684790887,0.12317011687159751,0.11509629058488505,0.1120289534557653,0.12671388053879168,0.1288690189376938,0.14717497510620897,0.1306315855862089,0.13660292181549824,0.13321066143917018,0.14275828447311312,0.1556765546531998,0.15761471438987434,0.15015725282416187,0.1348878710235155,0.14207436447316152,0.16055018892425033,0.16799287217676181,0.17395118950643967,0.18000506366798935,0.16701671501280832,0.16046833418436737,0.13962680391383514,0.1427214975101197,0.1474241947173637,0.13459316669489296,0.1408620353777993,0.1518684693726075,0.1675918555776843,0.18004280899237243,0.19716713177009076,0.20300568818018178,0.21665761190570837,0.2365041889539317,0.30554649236144515,0.4285379523718472,0.5911072413602493,0.9509899602362265,0.2747037619773268,-0.20434176784147573,-0.21846153903328058,-0.3158755347469761,0.09304920880824594,0.15098458330643552,0.18146147607514312,0.18610231222924847,0.16652860957625062,0.16260741568413753,0.0,0.0,0.0,0.0,0.0,0.0,0.0,0.0,0.0,0.0,0.0,0.0,0.0,0.0,0.0,0.0,0.0,0.0,0.0,0.0,0.0,0.0,0.0,0.0,0.0,0.0,0.0,0.0,0.0,0.0,0.0,0.0,0.0,0.0,0.0,0.0,0.0,0.0,0.0,0.0,0.0,0.0,0.0,0.0,0.0,0.0,0.0,0.0,0.0,0.0,0.0,0.0,0.0,0.0,0.0,0.0,0.0,0.0,0.0,0.0,0.0,0.0,0.0,0.0,0.0,0.0,0.0,0.0,0.0
0.9509899602362265,0.2747037619773268,-0.20434176784147573,-0.21846153903328058,-0.3158755347469761,0.09304920880824594,0.15098458330643552,0.18146147607514312,0.18610231222924847,0.16652860957625062,0.16260741568413753,0.1584288575811094,0.14605026181496508,0.14780661050458838,0.1286624651094789,0.12848096608884832,0.12497411264750148,0.12135090176677935,0.12400691058013047,0.1122458667737923,0.10680454329417013,0.12204474181299381,0.11177083454853044,0.09990509399409654,0.09124600365281069,0.09218515001365687,0.09477124073358187,0.10380134263446585,0.12725925370465602,0.13806899767640715,0.1521812297917614,0.15845467225507034,0.19674256672727,0.22243642949515777,0.21801803582539955,0.23289935427860123,0.22565592017907052,0.22816781987577298,0.22928674363201676,0.22583125342868768,0.2241803798809659,0.21636960184574536,0.21036930239137483,0.21255518022685846,0.19902343449931523,0.20323889198803818,0.19492128390173094,0.17884858050401653,0.17254659754278182,0.17282342387565047,0.1764862856272583,0.17237353224844457,0.1652586558719745,0.16788229931962895,0.16748663893854265,0.16724903677770792,0.19106285010028246,0.19748289695948815,0.19765192296836498,0.19793087879146176,0.19352450925436473,0.19557259464162027,0.21521394761522827,0.21099752010014647,0.21318330096168833,0.21219016129418145,0.22393354645681512,0.2292685856085929,0.2457021460015006,0.249306283249875,0.25121107970670176,0.24501574356886058,0.25619027720454096,0.3006418428352019,0.43570998702563685,0.6263038074739707,0.6652211521041683,0.16677325605158988,-0.23960717193350378,-0.2639255918815763,-0.26316732074393745,0.0,0.0,0.0,0.0,0.0,0.0,0.0,0.0,0.0,0.0,0.0,0.0,0.0,0.0,0.0,0.0,0.0,0.0,0.0,0.0,0.0,0.0,0.0,0.0,0.0,0.0,0.0,0.0,0.0,0.0,0.0,0.0,0.0,0.0,0.0,0.0,0.0,0.0,0.0,0.0,0.0,0.0,0.0,0.0,0.0,0.0,0.0,0.0,0.0,0.0,0.0,0.0,0.0,0.0,0.0,0.0,0.0,0.0,0.0,0.0,0.0,0.0,0.0,0.0,0.0,0.0,0.0,0.0,0.0
0.6652211521041683,0.16677325605158988,-0.23960717193350378,-0.2639255918815763,-0.26316732074393745,0.13876455267362442,0.1960957724806573,0.2196098539793278,0.19977522721452082,0.22267537486197664,0.232562157212447,0.2342432166105553,0.2229634175221262,0.22583850342360964,0.22376863014564072,0.22793127204171026,0.19372669672541876,0.1944806179928275,0.17443597758834498,0.14476605032937734,0.12301764889878436,0.10442642699047862,0.0953826407894758,0.08633999923530243,0.07412614439962273,0.06034909418811069,0.05617811094373092,0.0727821552639769,0.0974258691857559,0.0998439032105093,0.11510812367508458,0.12410741231140886,0.16988057325287198,0.20303684443834807,0.24111591987993214,0.26022281311077616,0.290643817469837,0.2829837996152348,0.29621114375681074,0.2904894634826121,0.29131859428971946,0.2779824463991686,0.26163552366573223,0.234307709895926,0.22468043847936178,0.22000030597238118,0.22344881064248742,0.21589591559695787,0.20052090185771246,0.17731476594442228,0.17495234697628617,0.17270591964727544,0.18012533160499933,0.1796683242747665,0.17769577612525894,0.19012928235154966,0.18986228186377455,0.19918894077705573,0.23721527087243496,0.28639343022553543,0.32439358330161966,0.5105551488910367,0.6376873462090725,0.5750897622393688,-0.0007671083427493444,-0.23255618541122342,-0.30835356340073655,0.02999545926555935,0.13710225382585323,0.19147053990144894,0.18993266531014333,0.18031530087976694,0.18016572005945078,0.1719710394724421,0.1573407050494128,0.1601937380245333,0.1598275026110567,0.15306818967823554,0.13833479346914473,0.1267943629765937,0.12642605049675376,0.0,0.0,0.0,0.0,0.0,0.0,0.0,0.0,0.0,0.0,0.0,0.0,0.0,0.0,0.0,0.0,0.0,0.0,0.0,0.0,0.0,0.0,0.0,0.0,0.0,0.0,0.0,0.0,0.0,0.0,0.0,0.0,0.0,0.0,0.0,0.0,0.0,0.0,0.0,0.0,0.0,0.0,0.0,0.0,0.0,0.0,0.0,0.0,0.0,0.0,0.0,0.0,0.0,0.0,0.0,0.0,0.0,0.0,0.0,0.0,0.0,0.0,0.0,0.0,0.0,0.0,0.0,0.0,0.0
0.5750897622393688,-0.0007671083427493444,-0.23255618541122342,-0.30835356340073655,0.02999545926555935,0.13710225382585323,0.19147053990144894,0.18993266531014333,0.18031530087976694,0.18016572005945078,0.1719710394724421,0.1573407050494128,0.1601937380245333,0.1598275026110567,0.15306818967823554,0.13833479346914473,0.1267943629765937,0.12642605049675376,0.11014911910460239,0.1018774801075973,0.11277567397691766,0.10779325896761507,0.11084252237578149,0.11555676481584114,0.10441351511025862,0.10132338959239515,0.09035641974465097,0.08904778317052223,0.09262177053271042,0.12020626492503228,0.17339905870776232,0.21395728042646475,0.2131988066994225,0.22849497997062881,0.2263807335439246,0.23872756121300312,0.24641054450515626,0.24783319893455966,0.2461786154966723,0.25419026108897075,0.25911273153448755,0.2641253768183036,0.25328302122581736,0.2600408462669407,0.2748254992304231,0.2800943146441055,0.28698809811237,0.30664625476802554,0.3247091146220237,0.3443451020787317,0.3495977878609186,0.38187871137391804,0.37741989828598677,0.5513319043555228,0.6422362473521426,0.47002541646404694,-0.26652510116329187,-0.2654780421080535,-0.10850899146227111,0.06734678675860431,0.20155725743741063,0.23359004872305222,0.24952321202100428,0.23822387759503805,0.2507084260349456,0.23600148608566418,0.24192978865279688,0.250981181669764,0.20580224063765692,0.20839853728520058,0.21735038830972858,0.21036029855191327,0.20656335139520607,0.2298743859555716,0.20062304529541544,0.18256204912540083,0.1852606286555601,0.17525983447962354,0.1477846360922152,0.13311838193816597,0.12807802880108227,0.0,0.0,0.0,0.0,0.0,0.0,0.0,0.0,0.0,0.0,0.0,0.0,0.0,0.0,0.0,0.0,0.0,0.0,0.0,0.0,0.0,0.0,0.0,0.0,0.0,0.0,0.0,0.0,0.0,0.0,0.0,0.0,0.0,0.0,0.0,0.0,0.0,0.0,0.0,0.0,0.0,0.0,0.0,0.0,0.0,0.0,0.0,0.0,0.0,0.0,0.0,0.0,0.0,0.0,0.0,0.0,0.0,0.0,0.0,0.0,0.0,0.0,0.0,0.0,0.0,0.0,0.0,0.0,0.0
0.6422362473521426,0.47002541646404694,-0.26652510116329187,-0.2654780421080535,-0.10850899146227111,0.06734678675860431,0.20155725743741063,0.23359004872305222,0.24952321202100428,0.23822387759503805,0.2507084260349456,0.23600148608566418,0.24192978865279688,0.250981181669764,0.20580224063765692,0.20839853728520058,0.21735038830972858,0.21036029855191327,0.20656335139520607,0.2298743859555716,0.20062304529541544,0.18256204912540083,0.1852606286555601,0.17525983447962354,0.1477846360922152,0.13311838193816597,0.12807802880108227,0.1199182528046482,0.14051395999979555,0.16915057397212302,0.1962680333167774,0.21389903338737068,0.2395729283787148,0.23344831258237964,0.23854991301473485,0.23893799653117667,0.256918097509586,0.271767287831805,0.25638694474384616,0.26017000719938255,0.26079601920726964,0.28534490177772476,0.30352558153279413,0.3057623910173754,0.29522696523914144,0.3213038832225374,0.3648513398697589,0.4274427562109458,0.5728002269616203,0.5730144500491413,0.2941958075685225,-0.23818793232393087,-0.2640197147253238,-0.10202875705326846,0.08525385125839302,0.17674037880245944,0.19795409894533167,0.19991504153288306,0.187427773811765,0.19398070865745848,0.21481486153452548,0.20054940768659268,0.22132263663313556,0.19587959656972623,0.2023244802122953,0.2040211200626404,0.19461078471553073,0.17888894023948315,0.17280529722843857,0.15087500653691577,0.14976285293502847,0.14238876636444098,0.13832478571326753,0.12005099523308829,0.12263567042562375,0.11102797603885979,0.1250757816751947,0.15363112143441304,0.19351341659406773,0.21285647507206729,0.2276012125593,0.0,0.0,0.0,0.0,0.0,0.0,0.0,0.0,0.0,0.0,0.0,0.0,0.0,0.0,0.0,0.0,0.0,0.0,0.0,0.0,0.0,0.0,0.0,0.0,0.0,0.0,0.0,0.0,0.0,0.0,0.0,0.0,0.0,0.0,0.0,0.0,0.0,0.0,0.0,0.0,0.0,0.0,0.0,0.0,0.0,0.0,0.0,0.0,0.0,0.0,0.0,0.0,0.0,0.0,0.0,0.0,0.0,0.0,0.0,0.0,0.0,0.0,0.0,0.0,0.0,0.0,0.0,0.0,0.0
