0.604063839467612,0.650254392961285,0.6474424345325133,0.6039498478452553,0.5354415680260011,0.46025535033421333,0.3937824137941182,0.3466601018547423,0.32160538320228244,0.314419629748341,0.31644686120081467,0.31721792431767065,0.30967491126448476,0.29058022195193206,0.2612650872111182,0.22648406893034534,0.19191393045816454,0.16345454684302893,0.1446235966136071,0.13619969608465446,0.13652127665987593,0.14219259293756215,0.15000334837097007,0.1573605671949929,0.1629483151966891,0.16673582852977167,0.16947073858072306,0.17261936503279612,0.17758106125746478,0.18546655208315316,0.19695038039966742,0.2121847909958349,0.2309574604664696,0.252610119567175,0.2761233693960633,0.3002458082290085,0.32370558908012736,0.3455986706139275,0.3656639242054109,0.3845012553992185,0.4035412360583496,0.4247312206063009,0.4499661931470612,0.4804475558604076,0.5161449038481627,0.5555702176099443,0.5959550185871302,0.6339220682842905,0.6662982783649282,0.6909927292330967,0.707599199161539,0.7171771705608581,0.7231933964174756,0.7290186749579358,0.7375059219826451,0.7500789129584451,0.7658641410623384,0.7826354450004196,0.7960051252607894,0.8008515788654705,0.7925586267553512,0.7679747661315331,0.7269198129352805,0.6714932568052194,0.6060068600693841,0.5361239905350211,0.46753635742216443,0.405490940983979,0.35318265647286373,0.3116079290285282,0.27968935431469083,0.25465984626720223,0.23347574066891297,0.21309542618603314,0.19137694799421304,0.1674773331844456,0.1416551696841865,0.11567416456442317,0.09151986169224197,0.07100859323429756,0.055265312054200336,0.044166319595876656,0.03719986924296884,0.03287211554798827,0.029442385458927363,0.0254342846974188,0.019811617899237063,0.012981671084080056,0.005782102857210377,-0.0004746333760469836,-0.004396742659362731,-0.00512234363166633,-0.001863284154153121,0.004959762442230287,0.014224404492526722,0.024441139770421318,0.0338929131581099,0.04196203299127424,0.047953370298202125,0.05165382516584658,0.053279022200205355,0.05300296517224586,0.05198850711589901,0.05052843787276544,0.04868043399144599,0.04642189350896743,0.04352038818417146,0.04093127820772138,0.03905879576216872,0.03841224875550596,0.039564764817729484,0.04271366999876276,0.04881631842932449,0.057606865444914966,0.06831088021430808,0.07983941583833493,0.09054075524056879,0.10020383993600958,0.108328798773479,0.11484776639153771,0.12011406685894037,0.12407969729708705,0.1282939377212582,0.13368417961606593,0.14085402090739205,0.14984414158243117,0.1595333231395344,0.16907545544455135,0.1767989842825578,0.18085537623896047,0.179574216305922,0.17160515664237572,0.15686042180784515,0.13608568020441822,0.11094189390873478,0.08372833647877206,0.05694470913139506,0.0328652234226259,0.013059576788808553,-0.001830934447113094,-0.01211754334837786,-0.01886582110902372,-0.023548404916916708,-0.0276177890990249,-0.03214641977100654,-0.037606078310323365,-0.043851080658392654,-0.050226696318894246,-0.05592176669383079,-0.06028136656194207,-0.06309461327226887,-0.06478162938517724,-0.06626366759737623,-0.0688721178494116,-0.07388411696498362,-0.08199026439559234,-0.09278276348302657,-0.10426401691802253,-0.11284734350913589,-0.1135863403969121,-0.10088591551891576,-0.06961565716781264,-0.0163236790267915,0.05945870422159213,0.15447857597986778,0.26170133005389123,0.3710668022154032,0.4712320567226261,0.5514386961083511,0.6036812845434832,0.6242885756266983,0.614488395015088,0.5801196140562582,0.5297644566472492,0.4726990701159411,0.41672531660682405,0.3665110205879517,0.3233100401380511,0.2851173316731479,0.24824734128897977,0.2091620575869497,0.16597519635087501,0.11966161443475405,0.07346269905209729,0.03204599282100528,0.0,0.0,0.0,0.0,0.0,0.0,0.0,0.0,0.0,0.0,0.0,0.0,0.0,0.0,0.0,0.0,0.0,0.0,0.0,0.0,0.0,0.0,0.0,0.0,0.0,0.0,0.0,0.0,0.0,0.0,0.0,0.0,0.0,0.0,0.0,0.0,0.0,0.0,0.0,0.0,0.0,0.0,0.0,0.0,0.0,0.0,0.0,0.0,0.0,0.0,0.0,0.0,0.0,0.0,0.0,0.0,0.0,0.0,0.0,0.0,0.0,0.0,0.0,0.0,0.0,0.0,0.0,0.0,0.0,0.0,0.0,0.0,0.0,0.0,0.0,0.0,0.0,0.0,0.0,0.0,0.0,0.0,0.0,0.0,0.0,0.0,0.0,0.0,0.0,0.0,0.0,0.0,0.0,0.0,0.0,0.0,0.0,0.0,0.0,0.0,0.0,0.0,0.0,0.0,0.0,0.0,0.0,0.0,0.0,0.0,0.0,0.0,0.0,0.0,0.0
0.7925586267553512,0.8454238690578162,0.8305160712524502,0.7591569804672694,0.6526618419960195,0.5361239905350211,0.43174109768626584,0.3539500988338709,0.3070088420391872,0.2859049867131077,0.27968935431469083,0.27583425918203397,0.26463667936932966,0.24149716371670063,0.2074019957591132,0.16747733318444563,0.12834130270570332,0.0959287648112642,0.07341767779899952,0.06075260233000939,0.05526531205420033,0.052875725053191124,0.0500626401352704,0.044600811438021984,0.03604396808554343,0.025434284697418808,0.014514674587894093,0.00516453590197823,-0.0013338749185299189,-0.0044693468123851105,-0.004396742659362736,-0.001643951711252378,0.0031432672297466145,0.0093966075774109,0.016644442922305613,0.02444113977042132,0.03232002700824964,0.03967597390924839,0.04590845664906472,0.05052856021985152,0.053279022200205355,0.054244195352006766,0.05364773734039074,0.051877304616270964,0.0493445303730584,0.04642189350896743,0.04352038818417146,0.04093127820772138,0.03905879576216872,0.03841224875550596,0.039564764817729484,0.04271366999876276,0.04881631842932449,0.057606865444914966,0.06831088021430808,0.07983941583833493,0.09054075524056879,0.10020383993600958,0.108328798773479,0.11484776639153771,0.12011406685894037,0.12407969729708705,0.1282939377212582,0.13368417961606593,0.14085402090739205,0.14984414158243117,0.1595333231395344,0.16907545544455135,0.1767989842825578,0.18085537623896047,0.179574216305922,0.17160515664237572,0.15686042180784515,0.13608568020441822,0.11094189390873478,0.08372833647877206,0.05678368643859789,0.03253816524059446,0.012657265127255122,-0.0021318941142038036,-0.01211754334837786,-0.018577935861062937,-0.02302202163674834,-0.02702590500711405,-0.031736926713395,-0.037606078310323365,-0.04452916943272077,-0.051482493852861855,-0.05735192108748341,-0.061283409155520774,-0.06309461327226887,-0.06371404207339328,-0.06437188534202512,-0.06680499632518484,-0.07249096999546252,-0.08199026439559234,-0.09471326862223658,-0.10773215450621695,-0.11669144418524557,-0.11621565489807734,-0.10088591551891576,-0.06676722709064768,-0.011329441762305034,0.06486887243943411,0.15810077850687512,0.26170133005389123,0.3663261489950419,0.46277032526558615,0.5420947449037873,0.5972955272809757,0.6242885756266983,0.6217365085326476,0.5930427033998593,0.5440756528161549,0.48255606826258296,0.41672531660682405,0.35325203263867266,0.29851756470322277,0.2560200901722194,0.2266962714350582,0.2091620575869497,0.19947549334186357,0.1946732567078193,0.1914718721676907,0.1875502967358251,0.18187077918071506,0.1739907198886603,0.16563499069694151,0.15860626907543798,0.15458005662954086,0.15457950077448043,0.15828308820870823,0.16523130309763537,0.17420691515177575,0.18384431093580023,0.19301528298635012,0.20113527532246414,0.2082146185029247,0.21490516487156655,0.22226298161652178,0.23145106519821979,0.24345181579532,0.25866968155192915,0.2769304425173839,0.2974096153993373,0.3187959211254917,0.33966630394402825,0.3587651016647764,0.3756527091957234,0.3909111734200223,0.40614077705276364,0.42366206196820194,0.4456603751124666,0.4736449996780914,0.5076531796802655,0.5459226486762727,0.5850044937486051,0.621121230201103,0.650724299761959,0.6720009308328044,0.6857045202997817,0.694843593322534,0.704986821601594,0.7209996933846015,0.7458138099328039,0.7790769618115732,0.8165437475792253,0.8517084095343663,0.8765938453376598,0.8845549358714196,0.8724494033233646,0.8416547410612475,0.7980958205675232,0.749854339256859,0.7046367504303157,0.6670843003589069,0.6369641400096335,0.6094432806184544,0.5762783103051503,0.5289129172835471,0.46171919739444905,0.37436356697909623,0.2729043665482032,0.16821724948861638,0.07335050897419654,0.0,0.0,0.0,0.0,0.0,0.0,0.0,0.0,0.0,0.0,0.0,0.0,0.0,0.0,0.0,0.0,0.0,0.0,0.0,0.0,0.0,0.0,0.0,0.0,0.0,0.0,0.0,0.0,0.0,0.0,0.0,0.0,0.0,0.0,0.0,0.0,0.0,0.0,0.0,0.0,0.0,0.0,0.0,0.0,0.0,0.0,0.0,0.0,0.0,0.0,0.0,0.0,0.0,0.0,0.0,0.0,0.0,0.0,0.0,0.0,0.0,0.0,0.0,0.0,0.0,0.0,0.0,0.0,0.0,0.0,0.0,0.0,0.0,0.0,0.0,0.0,0.0,0.0,0.0,0.0,0.0,0.0,0.0,0.0,0.0,0.0,0.0,0.0,0.0,0.0,0.0,0.0,0.0,0.0,0.0,0.0,0.0,0.0,0.0,0.0,0.0,0.0,0.0,0.0,0.0,0.0,0.0,0.0,0.0,0.0,0.0,0.0,0.0,0.0,0.0
0.6242885756266983,0.666604388923968,0.6549259617557245,0.5977526404650132,0.5117035874571638,0.41672531660682405,0.33021129431102925,0.26497063118876224,0.22569201819045145,0.20968895907879703,0.2091620575869497,0.21368051072156768,0.21563689292814417,0.21061448439670774,0.19836158047833044,0.18187077918071506,0.16499683034148135,0.15231720965313908,0.14642325786817686,0.1476965149179805,0.15457950077448043,0.16401379047979356,0.17368285892940463,0.18189866971906934,0.188163303072741,0.19301528298635012,0.19733299657616077,0.20253066143722415,0.20963315516071687,0.21922564001318653,0.23145106519821979,0.24604248450231983,0.26264544449613947,0.28073379808201515,0.2996801305281347,0.3187959211254917,0.3373766880729034,0.3550601504875136,0.3719002470406382,0.38853349213945126,0.40614077705276364,0.426144092757557,0.44991853895700396,0.47818812098649327,0.5106642445607614,0.5459226486762727,0.5815762229605329,0.6150156820880015,0.6440145219403441,0.6674498555111402,0.6857045202997817,0.7002360554708249,0.7145169105065989,0.731404289396387,0.7528329399030406,0.7790769618115732,0.8080976180702844,0.8367523715706567,0.8602086689462255,0.8734440843982988,0.8724494033233646,0.8550337562067875,0.8220152862565194,0.7763971379517047,0.7229388015472068,0.6670843003589069,0.6135798402333247,0.5660662566340174,0.5258136494877296,0.49190133958346594,0.46171919739444905,0.43167498541018967,0.3987731876766179,0.3609048168752409,0.31760562166797274,0.2701822031559834,0.22120436931821613,0.17448729860939158,0.13357047683160694,0.10117256469907292,0.07864520891751771,0.06555326091463264,0.06054345962400142,0.06100770731480325,0.06399941939153819,0.06690984299843027,0.0676945548253389,0.06615045806946987,0.06273117691716247,0.05860155925767748,0.05517447707934281,0.05324199630742474,0.053946599453170485,0.057183758192903035,0.062187683613517945,0.06783536901907335,0.07254005500461454,0.0762164442329825,0.07859670164025012,0.07985747503919204,0.08049626095880388,0.08054672920598221,0.08132306468826242,0.08301749830794344,0.08545490116031496,0.0882321654411129,0.0903742955199574,0.09238485015298471,0.09403701762183374,0.09522038659560103,0.09596806992342188,0.09593703429177666,0.09616019077113012,0.09664725567486047,0.09725535349490097,0.0978144839305743,0.09787483962244027,0.09810679628120732,0.0985173593812309,0.09906263946357824,0.09966089793772673,0.09996839828808748,0.10028135425032293,0.10037894778960428,0.10003387224560628,0.09913892270767043,0.09766708251636681,0.09625866615587167,0.0954877271624085,0.09604224981953283,0.09861694747761411,0.10371900960208011,0.11171245880701966,0.12246957991426093,0.13540886482495532,0.14955297335181372,0.1636503480387238,0.1765378122021044,0.18722523765031662,0.19518571609971433,0.20048899922601332,0.20376053442539296,0.20611997663088097,0.2087423968507061,0.21256282848472013,0.21796841799987374,0.22457642638782305,0.23135997485783158,0.2366573382096284,0.23858161965922808,0.23544783677373415,0.22613081717733519,0.21049841581868106,0.18928838780439608,0.16406934846252977,0.1369586698284053,0.1101903933890341,0.08588763372527318,0.06550574131334658,0.04973122657700968,0.038469502883076434,0.03093326362713688,0.02607419047726286,0.022620993978795058,0.019445443957337737,0.015776512577153325,0.0112606691553764,0.006152114060860737,0.0009581739413882965,-0.003629713439881373,-0.006916477728769788,-0.008424939072267167,-0.007826740124236483,-0.005261124023774048,-0.0012176070803032045,0.0035660166121295827,0.008201219785413544,0.012006587118959522,0.0143938927693506,0.01506358278110955,0.014048510953028953,0.011633717673326409,0.008458108382623048,0.005128401237327572,0.0021835282803640953,0.0,0.0,0.0,0.0,0.0,0.0,0.0,0.0,0.0,0.0,0.0,0.0,0.0,0.0,0.0,0.0,0.0,0.0,0.0,0.0,0.0,0.0,0.0,0.0,0.0,0.0,0.0,0.0,0.0,0.0,0.0,0.0,0.0,0.0,0.0,0.0,0.0,0.0,0.0,0.0,0.0,0.0,0.0,0.0,0.0,0.0,0.0,0.0,0.0,0.0,0.0,0.0,0.0,0.0,0.0,0.0,0.0,0.0,0.0,0.0,0.0,0.0,0.0,0.0,0.0,0.0,0.0,0.0,0.0,0.0,0.0,0.0,0.0,0.0,0.0,0.0,0.0,0.0,0.0,0.0,0.0,0.0,0.0,0.0,0.0,0.0,0.0,0.0,0.0,0.0,0.0,0.0,0.0,0.0,0.0,0.0,0.0,0.0,0.0,0.0,0.0,0.0,0.0,0.0,0.0,0.0,0.0,0.0,0.0,0.0,0.0,0.0,0.0,0.0,0.0
0.8724494033233646,0.937993238031973,0.9332580264464029,0.8707297763140995,0.7732334798223958,0.6670843003589069,0.5748480736239241,0.5102417560677683,0.4757609934403773,0.46402027587402517,0.46171919739444905,0.45466998675261316,0.43262407490339094,0.3917654397793726,0.33502072358181173,0.2701822031559834,0.2067401569568767,0.1530346327218783,0.11390306851092714,0.09003034497573185,0.0786452089175177,0.07502186408049304,0.07452171769524742,0.073747638931355,0.07116649669809279,0.06690984299843028,0.061947192635412054,0.057675574571735305,0.05502316647363166,0.05427848145982076,0.0551744770793428,0.05698351601644146,0.05933073045274416,0.06195397904049499,0.06478874344882822,0.06783536901907335,0.07082486144218585,0.07373306043531425,0.07638416453958088,0.07864510253636062,0.08049626095880388,0.0818359453413124,0.08304644074898174,0.08441851223629683,0.08614467150633896,0.0882321654411129,0.0903742955199574,0.09238485015298471,0.09403701762183374,0.09522038659560103,0.09596806992342188,0.09593703429177666,0.09616019077113012,0.09664725567486047,0.09725535349490097,0.0978144839305743,0.09787483962244027,0.09810679628120732,0.0985173593812309,0.09906263946357824,0.09966089793772673,0.09996839828808748,0.10028135425032293,0.10037894778960428,0.10003387224560628,0.09913892270767043,0.09766708251636681,0.09625866615587167,0.0954877271624085,0.09604224981953283,0.09861694747761411,0.10371900960208011,0.11171245880701966,0.12246957991426093,0.13540886482495532,0.14955297335181372,0.16367968623385332,0.17659740191953155,0.18729853848651865,0.1952405506903291,0.20048899922601332,0.2037542607385472,0.2061178651556747,0.20874993268943257,0.2125745296664002,0.21796841799987374,0.2244312638252877,0.2310597290538228,0.23628307937721654,0.2382988331394677,0.23544783677373415,0.22623280513819316,0.21065367245471509,0.1894295721301416,0.16414495650837196,0.1369586698284053,0.10987480110331456,0.08530024898001853,0.06483362602371717,0.0492581932977432,0.038469502883076434,0.03129479316127452,0.026680772863085678,0.02324693246940399,0.019842649326738848,0.01577651257715332,0.01056540221938125,0.004903707590122633,-0.0004245440235608952,-0.00457426218615916,-0.006916477728769788,-0.007601384693729517,-0.006448077657007818,-0.0038446349263457583,-0.00032663839536898297,0.0035660166121295814,0.00691388087730357,0.009831784173485805,0.01219144493036208,0.013764652565929044,0.014048510953028955,0.011655026478667965,0.0061041351557353275,-0.0032646699471861446,-0.016578554104466098,-0.03313669840736102,-0.05196912183364369,-0.06971163843726443,-0.08275173000630245,-0.08733557657225563,-0.08032190776775101,-0.060766469719267205,-0.027697258535179254,0.017472208437771003,0.07170745504569066,0.13075189720015032,0.18960061480083024,0.24361301082828188,0.2886294170872564,0.3217678402170639,0.34182570216805164,0.3492656390652728,0.3464533532432598,0.336525424112958,0.3229269721105161,0.3087429101694011,0.2961351701711726,0.286428755621224,0.2799142421370186,0.2763929971861882,0.2756601181707505,0.27779827839716115,0.2832428446852836,0.2923433890206641,0.3049022910237093,0.31979750445978183,0.3349846992892124,0.34805270643623637,0.35711297696955857,0.3618117277735586,0.36393489074881313,0.36723447913847795,0.376333485874194,0.3950147712898738,0.4244372300590944,0.4620595835078858,0.5018697979031489,0.5361085206270091,0.5580577476021417,0.5650013086912669,0.5601842762669584,0.5527982244472518,0.5556638432375056,0.5809728622578483,0.635440287142397,0.7164581850565431,0.8107962641089261,0.8965646899930417,0.9484237162789075,0.94444403613592,0.8727320938461279,0.7357335349471306,0.550508584128092,0.3452318430188398,0.15224346506636172,0.0,0.0,0.0,0.0,0.0,0.0,0.0,0.0,0.0,0.0,0.0,0.0,0.0,0.0,0.0,0.0,0.0,0.0,0.0,0.0,0.0,0.0,0.0,0.0,0.0,0.0,0.0,0.0,0.0,0.0,0.0,0.0,0.0,0.0,0.0,0.0,0.0,0.0,0.0,0.0,0.0,0.0,0.0,0.0,0.0,0.0,0.0,0.0,0.0,0.0,0.0,0.0,0.0,0.0,0.0,0.0,0.0,0.0,0.0,0.0,0.0,0.0,0.0,0.0,0.0,0.0,0.0,0.0,0.0,0.0,0.0,0.0,0.0,0.0,0.0,0.0,0.0,0.0,0.0,0.0,0.0,0.0,0.0,0.0,0.0,0.0,0.0,0.0,0.0,0.0,0.0,0.0,0.0,0.0,0.0,0.0,0.0,0.0,0.0,0.0,0.0,0.0,0.0,0.0,0.0,0.0,0.0,0.0,0.0,0.0,0.0,0.0,0.0,0.0,0.0
0.8727320938461279,0.9560431296873743,0.9793326006928993,0.9549858046191623,0.9041375388444814,0.8498811858849089,0.8104014659271817,0.7944997122218936,0.8000151676008361,0.8159464471597161,0.8270302779236899,0.8190759386162776,0.7837133790823628,0.7204527731650743,0.636290216345982,0.5430205888202393,0.45333886749425495,0.37747291202882033,0.3206669032708961,0.2826967859257738,0.25901089971678887,0.24283214222574398,0.2277636493557601,0.20940964887225086,0.1862119297319933,0.1592135055847494,0.1310246097690356,0.10487605139072008,0.08341508054053126,0.06816593703795701,0.05941611145270992,0.05636774672427671,0.05779926244861411,0.06224584030307529,0.06830612322913614,0.07477123916376918,0.08055533899812092,0.08509809981868101,0.08811701991986588,0.08967634395250895,0.09012636687482843,0.08981730297179269,0.08940269882876992,0.0893134953986619,0.08972633450520093,0.09053457222814183,0.09129868773364724,0.09177994656058802,0.09180973478554674,0.09144484768618275,0.09094277758145523,0.09010199509004126,0.09012743159415101,0.09104186009575149,0.09257967324918494,0.09433724885634694,0.09544514045689956,0.09650607936990105,0.09732100405183693,0.0977454219092882,0.09773172013123863,0.09689599135841657,0.09612441506340423,0.09538658143140546,0.09455581906302027,0.09352826599150184,0.09204666353202108,0.09076173629018255,0.08981788108150784,0.08931971201480104,0.08932481185176504,0.08972756452816523,0.09067538282861214,0.09196612847396822,0.09332440731833873,0.09449489656874792,0.09526818683910403,0.09583850077901135,0.09645045816770986,0.09753648056423606,0.09966498128573081,0.10339427559799963,0.10926149096598545,0.1174561114522529,0.12776087984159343,0.13951069928784515,0.1518223231931124,0.16326398343085008,0.17238478096608448,0.17797393558129831,0.1793564172899595,0.17695907877375167,0.1712023912137218,0.16307542008834006,0.15373906891755043,0.14428387113335794,0.13557608529018733,0.1280131899936851,0.12148045867969849,0.11546215369047672,0.10921132497675638,0.10167580824624504,0.09257873304255607,0.08179143016212143,0.06958568129224839,0.056563655648939656,0.04325308471272173,0.030734411639300952,0.01975158366778722,0.010774333777160137,0.003915986321122928,-0.001303355385237541,-0.005148451499630409,-0.008203783979358531,-0.011039599808357049,-0.014090617275868335,-0.017865836502075627,-0.02201967773133264,-0.02616436231596229,-0.029733223670975105,-0.03209722087285959,-0.03302583004935053,-0.031715031989809954,-0.02778092771040662,-0.021128234390556444,-0.012110239396812557,-0.0021576851524295125,0.007458425694360448,0.014410878007730242,0.015692564332300103,0.007876742079234481,-0.012936352899969144,-0.04870205879898319,-0.10004263549015169,-0.16524528035017955,-0.2399914780906997,-0.31763765135368827,-0.38965269128483776,-0.44710243285215395,-0.48185120740063886,-0.4878596982606338,-0.46231134592081813,-0.4058363901905545,-0.32298499744764225,-0.2214707838642419,-0.11107069670719552,-0.0022749960617796947,0.09551399902858196,0.17496272476041666,0.23190338043358563,0.2657183048462428,0.27899592055496575,0.27684451762433715,0.2653046968782031,0.25007682264258607,0.23543318219613243,0.2236617446187263,0.21532412999999348,0.20982288987594805,0.2064344922288417,0.20514805954602208,0.20699478836586385,0.21371332137254884,0.22683983135167027,0.24663431039316866,0.27133697158466125,0.2972053751743985,0.3194582612553727,0.33400786907571883,0.33929263466975695,0.3375258836233005,0.3347217317277128,0.33913752895629745,0.3586361700582086,0.3974975923447408,0.4539001474153629,0.5190509087797844,0.5784768573833796,0.6154124055311936,0.6153218474923514,0.5702744112074253,0.48176965555594875,0.361062365358786,0.22671487369768778,0.10008164018637193,0.0,0.0,0.0,0.0,0.0,0.0,0.0,0.0,0.0,0.0,0.0,0.0,0.0,0.0,0.0,0.0,0.0,0.0,0.0,0.0,0.0,0.0,0.0,0.0,0.0,0.0,0.0,0.0,0.0,0.0,0.0,0.0,0.0,0.0,0.0,0.0,0.0,0.0,0.0,0.0,0.0,0.0,0.0,0.0,0.0,0.0,0.0,0.0,0.0,0.0,0.0,0.0,0.0,0.0,0.0,0.0,0.0,0.0,0.0,0.0,0.0,0.0,0.0,0.0,0.0,0.0,0.0,0.0,0.0,0.0,0.0,0.0,0.0,0.0,0.0,0.0,0.0,0.0,0.0,0.0,0.0,0.0,0.0,0.0,0.0,0.0,0.0,0.0,0.0,0.0,0.0,0.0,0.0,0.0,0.0,0.0,0.0,0.0,0.0,0.0,0.0,0.0,0.0,0.0,0.0,0.0,0.0,0.0,0.0,0.0,0.0,0.0,0.0,0.0,0.0
0.8293988003843978,0.9065578611059515,0.9256139359239361,0.8984176641006625,0.845294827574813,0.788559099814603,0.745926305636529,0.7261554465719693,0.7274760707197245,0.7395345667124704,0.7477193992448083,0.7382692772591668,0.7028144032329193,0.6404762032972461,0.557608267715718,0.4653524258974717,0.3759996539161172,0.29979698148631245,0.24248744507948483,0.20472317295000642,0.18298545255013512,0.17139824569510329,0.16411821773149218,0.15675976176260759,0.14719472085506302,0.1353971576568826,0.12253782449377155,0.11041497581350905,0.10036316015676466,0.09291819519701364,0.08780886276363008,0.08405585261712731,0.0808678326467781,0.07755263132304248,0.07375759402423618,0.06945642539449723,0.06466141363693836,0.059897566441212094,0.05568890419312797,0.05259181446849575,0.0511039880253644,0.0513463622373464,0.05358859689332937,0.05769978346414135,0.0632424573777683,0.06952196607197687,0.07558956596473763,0.08079147335578325,0.08464488192213866,0.08698569244572982,0.08793994411858935,0.08734625665216454,0.08637522201790004,0.08519112679089433,0.08377978413278264,0.08209343531399647,0.07977117065481737,0.07779766579379963,0.0764176118458978,0.07584591612068381,0.07624692650940361,0.07732162726886288,0.07968557037386093,0.08296563301785603,0.08659827381256803,0.09003752070282753,0.09271416191211956,0.0950625704951634,0.09734841310954366,0.10006120726269274,0.10382811489625142,0.10916464291607839,0.11668741142572407,0.12646561060485104,0.13812308828215863,0.15087776313497595,0.1637005516303824,0.17554767761735138,0.18546264170979895,0.19290588103317996,0.19792741137370043,0.20132101947449293,0.2040977879731333,0.20736378988099757,0.211957470292257,0.21816179367788507,0.22545635419005342,0.23281758328787056,0.23861274339759758,0.2410163199605392,0.2383961759820697,0.22936667876173344,0.21398710250217154,0.19307688292571729,0.16828747499124835,0.14178144680896898,0.11553317778530393,0.09175747738270668,0.07185333795945341,0.05640667775400497,0.04516671763586829,0.036952967007221206,0.0307022442474713,0.025137750420888064,0.019267203471734475,0.012581381917373244,0.004812284133448345,-0.0032293449090998513,-0.010640339232495619,-0.016474272989832953,-0.0200039538011218,-0.021253486600283557,-0.01996949978521918,-0.01646540707613363,-0.011273622741325916,-0.0050586477779280825,0.0009535837250543222,0.006376934971343387,0.010404686523994875,0.0120116110907398,0.009886658245265642,0.0019330440106760836,-0.01268577027517942,-0.034579319540761,-0.06331635116816955,-0.09713452364946955,-0.1336230612210239,-0.16770407177196067,-0.1940797631191735,-0.20758282289531216,-0.2041557055442047,-0.1826000995385633,-0.14233206406676366,-0.08575680916041968,-0.01732365258455037,0.05709898152822154,0.1309323895595623,0.1982013211114185,0.2537855306747924,0.29427431445289476,0.3183536686006478,0.3267229740311873,0.32224334264216303,0.30869847926856203,0.29024861879791103,0.2706953322100939,0.2528685536256152,0.2386872394648484,0.22892065220758234,0.22371184343930586,0.22303699581954,0.22697883808667826,0.23580167513995842,0.24951329693296023,0.26745375205417843,0.28798735324336194,0.30859259061060823,0.32649949193673367,0.3396583633800625,0.3477828951967427,0.35293771066718377,0.35929959506325937,0.3719213460618612,0.39492147169627895,0.4295713233422568,0.47315405584068276,0.5192115681679126,0.5593460586366248,0.5861869904622972,0.5965170387431542,0.5933704010141816,0.5860797519824599,0.5879077679997264,0.6116630540321584,0.6646571954115824,0.7446723506843288,0.8385745783047556,0.9241370421236432,0.9755154905312379,0.9702270449207773,0.895974300354476,0.7551708455719179,0.5650364582489913,0.3543633182024887,0.15628488097282484,0.0,0.0,0.0,0.0,0.0,0.0,0.0,0.0,0.0,0.0,0.0,0.0,0.0,0.0,0.0,0.0,0.0,0.0,0.0,0.0,0.0,0.0,0.0,0.0,0.0,0.0,0.0,0.0,0.0,0.0,0.0,0.0,0.0,0.0,0.0,0.0,0.0,0.0,0.0,0.0,0.0,0.0,0.0,0.0,0.0,0.0,0.0,0.0,0.0,0.0,0.0,0.0,0.0,0.0,0.0,0.0,0.0,0.0,0.0,0.0,0.0,0.0,0.0,0.0,0.0,0.0,0.0,0.0,0.0,0.0,0.0,0.0,0.0,0.0,0.0,0.0,0.0,0.0,0.0,0.0,0.0,0.0,0.0,0.0,0.0,0.0,0.0,0.0,0.0,0.0,0.0,0.0,0.0,0.0,0.0,0.0,0.0,0.0,0.0,0.0,0.0,0.0,0.0,0.0,0.0,0.0,0.0,0.0,0.0,0.0,0.0,0.0,0.0,0.0,0.0
0.895974300354476,0.9797668641149715,1.000692324702558,0.9713520249167295,0.9135498154042963,0.8513557476151222,0.8040122848315809,0.7813610034155047,0.7820403905946866,0.7955361595307708,0.8067371948757686,0.8012709086633791,0.7704125123332504,0.7131539393896693,0.6359032750522798,0.5498642604197372,0.46716936859275476,0.3976525705901247,0.3463172640449926,0.31289641163752263,0.29299132596370575,0.2801091773932535,0.26826606607015446,0.25344797888647563,0.23435081798240887,0.21205513305125445,0.1889302162513182,0.16777670503293063,0.1506590213171602,0.13850360740135526,0.1311189401388032,0.12743732847998365,0.12628987513334444,0.12653792129078656,0.12732126317686035,0.12807641265569453,0.12833584365791165,0.1280524179384142,0.12726679883228678,0.12616336545075513,0.12503388517258585,0.12404506232759882,0.12360171229431315,0.12387984751988311,0.12483481897681639,0.12619334473169477,0.12733076354062275,0.12802923726327162,0.12815474502419325,0.12782572583729268,0.12735280429080373,0.12638353024059945,0.12626998924801475,0.12707006965759218,0.1285482304580081,0.13031514056932628,0.1313786547553792,0.13239680431171352,0.1331548614256502,0.13347931582806638,0.13327747684784882,0.13206107929055394,0.13070096957296562,0.12917629208813325,0.12741274897118687,0.12538990302549322,0.12287743803423903,0.1206661156405725,0.1189704181392083,0.11791239683662022,0.11750232920313762,0.11744854653408747,0.1178614223103718,0.11845853543297434,0.11894366546938127,0.11911472170145976,0.11881963271433973,0.11845903687944837,0.11837323064493915,0.11898756553779581,0.1207271141997819,0.12384588938857712,0.12858275724885923,0.13476361324836705,0.14193584753655553,0.14946550743586015,0.15650879045238542,0.1628118413184513,0.1682639655854782,0.17316653430423062,0.1782039006719384,0.18398610634479826,0.1917822408229651,0.20235556861555987,0.21593120596587445,0.2319883546167987,0.24885570951883113,0.2648937334740025,0.277828214393825,0.28540061316842996,0.28577280856165904,0.27750960692836035,0.26097079856631944,0.23734429025797213,0.20876662841060883,0.17796249159262215,0.14733280950619065,0.11982416234602482,0.09734835800277715,0.08083574891456752,0.07015217462358522,0.06373060502742324,0.06044971961415122,0.05873088981367135,0.05728005009591739,0.05532035710550761,0.052028898224645494,0.0482706429601049,0.044762852085769717,0.04211704193398053,0.040488539587430004,0.03867940302130283,0.03639349606929006,0.03274709863096415,0.027117068129522685,0.019467461511410024,0.009715711703687357,0.00021788403943528946,-0.006520562706542584,-0.007834310632837875,-0.001553616564609959,0.012489619032421372,0.03495550979891846,0.06471499252852854,0.09965752407069493,0.1370534073752193,0.17392023046951902,0.20776327969431088,0.2365709093022458,0.25923158338576074,0.2756604313150485,0.2866383828423151,0.29389595130888785,0.29923258345748316,0.30422638912707733,0.3098729963817528,0.31631305376808266,0.3234156844951034,0.3305572495489068,0.3373522695918932,0.34408556144845714,0.3516819425577863,0.36196144416121934,0.3762371430601061,0.3948408306772716,0.41665035910073506,0.43907332822172995,0.4591322060856665,0.47423023786284224,0.48361948981272884,0.48921515675301297,0.4954023867294046,0.5078983498826095,0.5314821033531064,0.5678803834829073,0.6143906243476763,0.6640018849566588,0.7074133338427068,0.7361191782130603,0.7459614526777205,0.7395660919423398,0.72654678495397,0.7211268970925597,0.7373706211700519,0.7837244333129999,0.8585542672238674,0.9484378642495159,1.0302338248903264,1.0765628628461368,1.0634156570273208,0.9775424425053951,0.8212863315500254,0.6131924837229836,0.38401992058066714,0.16920789498064934,0.0,0.0,0.0,0.0,0.0,0.0,0.0,0.0,0.0,0.0,0.0,0.0,0.0,0.0,0.0,0.0,0.0,0.0,0.0,0.0,0.0,0.0,0.0,0.0,0.0,0.0,0.0,0.0,0.0,0.0,0.0,0.0,0.0,0.0,0.0,0.0,0.0,0.0,0.0,0.0,0.0,0.0,0.0,0.0,0.0,0.0,0.0,0.0,0.0,0.0,0.0,0.0,0.0,0.0,0.0,0.0,0.0,0.0,0.0,0.0,0.0,0.0,0.0,0.0,0.0,0.0,0.0,0.0,0.0,0.0,0.0,0.0,0.0,0.0,0.0,0.0,0.0,0.0,0.0,0.0,0.0,0.0,0.0,0.0,0.0,0.0,0.0,0.0,0.0,0.0,0.0,0.0,0.0,0.0,0.0,0.0,0.0,0.0,0.0,0.0,0.0,0.0,0.0,0.0,0.0,0.0,0.0,0.0,0.0,0.0,0.0,0.0,0.0,0.0,0.0
0.9775424425053951,1.0605623824498742,1.0701554609301127,1.0201471653241907,0.9351547456203197,0.8429778502058303,0.7666310677187984,0.7191539230956507,0.7011819852951797,0.7028357887471235,0.7084132579062654,0.7020495817003332,0.6732645495098789,0.6193699832395942,0.5455199189489788,0.46223516985876084,0.3814715743902108,0.31340387389915,0.26360381246098047,0.23243946685612915,0.21605708181125616,0.20826687057657448,0.20321677059555526,0.19674378023572062,0.1871614585427057,0.174990712946198,0.1619178920252346,0.15014325210842047,0.1412502034141629,0.1359071193514408,0.13392434408113982,0.1344510988964223,0.13673895547859166,0.14010793850263553,0.14408501974071852,0.1483267836393384,0.15231737187766342,0.15589176457161755,0.15884007006185108,0.16108610105967924,0.16272922319753702,0.16376266097057515,0.16473234765392922,0.16601862500077416,0.16782943697554903,0.17011076959341714,0.17234632470906505,0.1743295005530603,0.17582947392932843,0.1768211909230881,0.17749231598929727,0.17747097746902268,0.17816807061041162,0.17971148636935522,0.18195290104825204,0.18457302809613074,0.18662532909590257,0.18869184727361304,0.19043193937465144,0.19150466902294744,0.1916537402029642,0.19030206066802527,0.18823367147765202,0.18554104590465856,0.18235366077229231,0.17887900299135706,0.17511205974637126,0.17184681956047979,0.1692807065903472,0.1674234182266046,0.16610426577974993,0.16489041024119366,0.16361413899365337,0.16187895088901919,0.15938479222285346,0.15605387859352968,0.151974409998029,0.1479552272205501,0.1448986868951839,0.14388537948236205,0.1460034914073094,0.15195860420762763,0.1624376312998331,0.1773455112008182,0.19590393937996758,0.21668905564319943,0.23789222373823127,0.25738107314092434,0.2730621943424755,0.28332280423884904,0.28737461987908947,0.2857924521155377,0.27943621178550004,0.26978049225229855,0.25847415600611584,0.24701588650380982,0.23648430257455338,0.2275066910590001,0.21997819390483822,0.21330964097713262,0.2066571531285301,0.19878675870020276,0.18954002432820188,0.17882900374271518,0.1669711542264764,0.15457239992823718,0.1419488113667774,0.13014387051929133,0.11962282931634198,0.11049470449356066,0.10248764672794426,0.09463840682550896,0.08664865257794224,0.07794703514805545,0.06819601324341823,0.05740964840436269,0.045583227079567266,0.033949527246019226,0.0236862131762949,0.016081832748523837,0.012331650080781114,0.012905407511657311,0.01878046130198322,0.030091450688261,0.04636121210151907,0.06636851913277031,0.08749460979511144,0.10731546722866969,0.12222798816018804,0.1280459591160114,0.12040538818475949,0.09478085030176903,0.04923216621001436,-0.016364762237252913,-0.0992561014818297,-0.19362343718780423,-0.291063323302293,-0.3810885108866271,-0.45305346280926956,-0.4975060387269599,-0.5076522625603679,-0.4806282316892598,-0.4175082830153429,-0.32395997593497217,-0.20919875585137362,-0.084639261607922,0.037661300459741524,0.1472331065537055,0.23606340475628543,0.2998548541598629,0.33837373934452386,0.35491607434328487,0.3555977141205961,0.34727002362584963,0.3361302788496459,0.3265136555526142,0.3202782634218977,0.31736323038489084,0.31629756964606304,0.31556388895076365,0.3146535717607045,0.31447042367398625,0.3171896512705882,0.3249725687856865,0.33879776027583985,0.3575292871353934,0.3777848018549997,0.39498602600765276,0.4049749937394469,0.4060572170315429,0.4004050025100822,0.39415149299561025,0.3959023695841378,0.41385415561082795,0.4524570598643377,0.5097220009024176,0.5762282611056108,0.6366314985689702,0.6730570737529229,0.6700049234054117,0.6190389992947529,0.5217632254374742,0.3903940590580395,0.2448453216920741,0.10799478722998299,0.0,0.0,0.0,0.0,0.0,0.0,0.0,0.0,0.0,0.0,0.0,0.0,0.0,0.0,0.0,0.0,0.0,0.0,0.0,0.0,0.0,0.0,0.0,0.0,0.0,0.0,0.0,0.0,0.0,0.0,0.0,0.0,0.0,0.0,0.0,0.0,0.0,0.0,0.0,0.0,0.0,0.0,0.0,0.0,0.0,0.0,0.0,0.0,0.0,0.0,0.0,0.0,0.0,0.0,0.0,0.0,0.0,0.0,0.0,0.0,0.0,0.0,0.0,0.0,0.0,0.0,0.0,0.0,0.0,0.0,0.0,0.0,0.0,0.0,0.0,0.0,0.0,0.0,0.0,0.0,0.0,0.0,0.0,0.0,0.0,0.0,0.0,0.0,0.0,0.0,0.0,0.0,0.0,0.0,0.0,0.0,0.0,0.0,0.0,0.0,0.0,0.0,0.0,0.0,0.0,0.0,0.0,0.0,0.0,0.0,0.0,0.0,0.0,0.0,0.0
0.9513490081220931,1.0412167775067827,1.0650495738435573,1.0363541526059559,0.9782899189101845,0.9162534683773061,0.8702807028045519,0.8503029330583245,0.8541960322736158,0.8700584318361878,0.8811579286325192,0.8716909432857766,0.8322017489887193,0.7617968552891906,0.6678693045504256,0.5632709262329813,0.46205089635455365,0.3759780464407992,0.3115655499770742,0.2694357365065782,0.2453839238334434,0.23242536632617675,0.22373646828663873,0.21420969051328212,0.20144041766987228,0.18557321675958202,0.16821304706594165,0.15191849480209446,0.1387808658254166,0.12999644856037024,0.12576250968572067,0.12523875201243118,0.12766025385594382,0.13206313491385543,0.137582680246198,0.1434753737819958,0.1488642284992172,0.15343013966287822,0.15694277876201693,0.159434257780136,0.16118823787827088,0.16244781730072996,0.16387193132661032,0.16589909018265464,0.1687097757463727,0.1721570756389741,0.17566047049928604,0.1788095823314957,0.18119536898442914,0.18262075551817264,0.18312591339967726,0.18232819235127715,0.18149413992545188,0.18074331528083537,0.18001215534133613,0.17918186661402527,0.1776578720519963,0.17644902682664104,0.17562826868763884,0.17522346005785597,0.17523781982837328,0.1751500465042413,0.17573748604993972,0.17670712131146937,0.17763782283746313,0.17817060321563735,0.17778332365665092,0.17730842008961084,0.1772384373458757,0.1782501900021249,0.1811033866029014,0.18618481641172874,0.1943235910827516,0.20560213104444994,0.21957987540481408,0.23529170638755953,0.2512412364249539,0.26601328486741593,0.2780364844104522,0.28607193603730763,0.2894800261722177,0.2884385394307655,0.2837313623884617,0.276550021675443,0.2682455520311669,0.2600285775144575,0.2525904137328292,0.24639460878181177,0.24117339861425305,0.23621301049908053,0.23057712885669743,0.22303801441018703,0.21337262852617173,0.20153955112115454,0.18799029755548924,0.173558678123228,0.15889739062458594,0.14534725917496605,0.13366093423711115,0.12413504317946182,0.1165402273897586,0.10980466398621762,0.10337952662766363,0.09639151526008062,0.08822724919954353,0.07873485871287521,0.06790176888724468,0.05715237915133972,0.04799125702320167,0.04208322345527915,0.04092949003599183,0.04509644619730542,0.05545600109826159,0.07176933158127856,0.09302916749886603,0.11750002980576425,0.14223330052464292,0.16503888538325726,0.18310222848618354,0.19362690357923307,0.19407056957553667,0.1817445807385759,0.15635816886698237,0.11853470262979372,0.07053322917728275,0.01621528712107343,-0.0401431337976994,-0.09174899596866976,-0.13240731829715488,-0.1568473783281076,-0.1616399953333898,-0.14687548263254444,-0.11314578660192631,-0.06401561251814329,-0.00463381338466229,0.059087903864075954,0.12120445876620566,0.1770172603749385,0.2229733705745874,0.25724743643006526,0.2798158030615417,0.292120809753022,0.29704914820918255,0.29768438973988043,0.29685171927738063,0.2965878226677819,0.29778749665596127,0.300625477668404,0.3045030838247525,0.3087905580191139,0.31335984227402197,0.3187618027209657,0.32626484784255966,0.33698210945453544,0.3512747729311033,0.36825659629262986,0.38577006655798896,0.40119740435140544,0.41239942289855785,0.4190055661410275,0.4231533503112377,0.42926534271144245,0.44284803879362405,0.4683339973934292,0.5070126868226142,0.555750846559855,0.607189062007157,0.6519789269979199,0.681766555196629,0.6928090225494647,0.6883483428084721,0.6786038486714426,0.678517446820051,0.7024025976728011,0.758502320275412,0.8444994296949543,0.9458925068561453,1.0382421452694042,1.0929127758279247,1.084943173657088,1.0006505165814363,0.8426515133370622,0.6301177186993062,0.39502302135694206,0.17417176848715446,0.0,0.0,0.0,0.0,0.0,0.0,0.0,0.0,0.0,0.0,0.0,0.0,0.0,0.0,0.0,0.0,0.0,0.0,0.0,0.0,0.0,0.0,0.0,0.0,0.0,0.0,0.0,0.0,0.0,0.0,0.0,0.0,0.0,0.0,0.0,0.0,0.0,0.0,0.0,0.0,0.0,0.0,0.0,0.0,0.0,0.0,0.0,0.0,0.0,0.0,0.0,0.0,0.0,0.0,0.0,0.0,0.0,0.0,0.0,0.0,0.0,0.0,0.0,0.0,0.0,0.0,0.0,0.0,0.0,0.0,0.0,0.0,0.0,0.0,0.0,0.0,0.0,0.0,0.0,0.0,0.0,0.0,0.0,0.0,0.0,0.0,0.0,0.0,0.0,0.0,0.0,0.0,0.0,0.0,0.0,0.0,0.0,0.0,0.0,0.0,0.0,0.0,0.0,0.0,0.0,0.0,0.0,0.0,0.0,0.0,0.0,0.0,0.0,0.0,0.0
1.0006505165814363,1.0882472888476424,1.1021383505875249,1.056424037144329,0.9760291456117722,0.8889372064957496,0.8181056011286715,0.7762394986559492,0.7634254487561914,0.7691613790741297,0.7772238964100628,0.7714659945572863,0.7414855276811402,0.684983747161523,0.6077145784404986,0.520845868922138,0.4368497385927363,0.3662095991148807,0.31453274544000503,0.2820030844647794,0.2644678414342134,0.2554351676967261,0.2488852359096998,0.24063971715832422,0.22913544965865343,0.21508046857164329,0.2003079092311918,0.18705403386024824,0.17677004780613972,0.1698381782840803,0.16569309570907317,0.16311908792795837,0.1611150981124629,0.15894709636887688,0.15632517002112864,0.1533114941902973,0.1499592252020169,0.14671543108906498,0.14392588791329283,0.14190884240989782,0.14092989267152145,0.14091246701695864,0.14209385474954017,0.14440839130396482,0.1475779700951089,0.15113143264498163,0.15427219269172765,0.15676142808531632,0.1585318045386654,0.15987106322522443,0.1613329726184418,0.16279257510248768,0.1659050493862411,0.1708074640923893,0.17717061408044238,0.1843407248043335,0.1908964818919774,0.19707187465491754,0.20219314412406555,0.2057184565114586,0.2073484769902252,0.20656663078511797,0.2044438912254862,0.2013313967290388,0.19760297171872784,0.1936533460781583,0.18953709701761245,0.18612068680225616,0.18351587800058913,0.1815782401069719,0.17995821516609142,0.17802637108146732,0.17558202201513903,0.17222610601281232,0.1677478901950807,0.16223766112188628,0.15595501269569187,0.14997038084046932,0.14533671334560497,0.14318109101594026,0.1445171070776812,0.1498270199993824,0.1596020598036073,0.173508217593957,0.19060260490649406,0.20943847880058297,0.22829670276440278,0.24546661683609464,0.2593988124020485,0.26910074076140567,0.2743598505234847,0.2760553930301766,0.27527786663578707,0.2733987700935223,0.271653585511607,0.27084039431061196,0.2710958775648723,0.27204522120968494,0.27262948731781966,0.2714924064195755,0.26732093809773916,0.2588283589016348,0.24606824773578329,0.22952175172536102,0.21030018375814935,0.18990694133400216,0.1695466755715366,0.15097875258043217,0.13516421500764125,0.12243834157560768,0.11249294457026518,0.10409480662994933,0.09658435238557145,0.0889614336008419,0.08049794127143675,0.07092009642045195,0.06003185072333977,0.0490947604569764,0.0393913135035169,0.03236464307572625,0.029347248270638747,0.030811285655823438,0.037755486753701,0.05020441172024333,0.06751968387797058,0.08833230618980929,0.10990053042159012,0.12997820074644537,0.145323153378265,0.15232181989841231,0.14731736410897986,0.12641903404116547,0.08830396229852173,0.033110670667583296,-0.036606342395468706,-0.11577791575543014,-0.19729100569093327,-0.2723903220941221,-0.33236844116223646,-0.3696355208182707,-0.3788731956198402,-0.35802651006221925,-0.30815934395587075,-0.2340325268351427,-0.14317655995583045,-0.044779182012833985,0.05153914792292508,0.13765991579135628,0.207470920992361,0.25793098526178554,0.2893148315941722,0.30465674017264427,0.30926506906186263,0.30865630086060236,0.3074451761396995,0.308379672976069,0.3119386216020196,0.3171501550991729,0.3221318639855677,0.32551931003626033,0.32744451435796573,0.32974763602193363,0.3355879160483101,0.34784319554038473,0.36771928853127955,0.39372136657710277,0.4215981735875084,0.44567636777391145,0.460807791407178,0.4647888605208586,0.4599982187962399,0.4534876626838078,0.4552736914019805,0.4749555346608543,0.5178709484428514,0.5819865913098241,0.6567377590153404,0.7247650244132594,0.7657522961879557,0.762038603767362,0.7039749638234083,0.5933229338180324,0.4439387803775692,0.2784368987206153,0.1228174133017395,0.0,0.0,0.0,0.0,0.0,0.0,0.0,0.0,0.0,0.0,0.0,0.0,0.0,0.0,0.0,0.0,0.0,0.0,0.0,0.0,0.0,0.0,0.0,0.0,0.0,0.0,0.0,0.0,0.0,0.0,0.0,0.0,0.0,0.0,0.0,0.0,0.0,0.0,0.0,0.0,0.0,0.0,0.0,0.0,0.0,0.0,0.0,0.0,0.0,0.0,0.0,0.0,0.0,0.0,0.0,0.0,0.0,0.0,0.0,0.0,0.0,0.0,0.0,0.0,0.0,0.0,0.0,0.0,0.0,0.0,0.0,0.0,0.0,0.0,0.0,0.0,0.0,0.0,0.0,0.0,0.0,0.0,0.0,0.0,0.0,0.0,0.0,0.0,0.0,0.0,0.0,0.0,0.0,0.0,0.0,0.0,0.0,0.0,0.0,0.0,0.0,0.0,0.0,0.0,0.0,0.0,0.0,0.0,0.0,0.0,0.0,0.0,0.0,0.0,0.0
1.0001121173783418,1.090694886509897,1.1093266556511845,1.070057405530491,0.9974931716879567,0.9190539439052717,0.8569821278686196,0.823175428749658,0.816996509554619,0.8274204977365291,0.8379957704322014,0.8327105077987094,0.8015280714778305,0.7427258602295689,0.6626932310720093,0.5731529516822882,0.48696165433870653,0.41466933637671954,0.3616879908873126,0.32779080880134176,0.3083101329323749,0.29628829156871966,0.2853539956119071,0.2712275812381454,0.2525257841273366,0.23040659034542055,0.20737816196605363,0.18643810353780504,0.16980726743960214,0.15852945971367363,0.15250304775846613,0.15072588049543872,0.15210338135073637,0.15552950024117015,0.16010022654542633,0.1650933028497153,0.1697222557969737,0.17357736005647756,0.1762819215878845,0.1776422044743926,0.17768355794096444,0.17641712196259768,0.17437021023619176,0.17198322829333013,0.16959065749764538,0.1673396265891493,0.16498318671855858,0.16262595258937043,0.16034463672783786,0.1583611326673877,0.1569956952373342,0.15580361118336047,0.1560986923031519,0.15776105625562303,0.16035171306415677,0.1632884772464654,0.16541579924528568,0.16733527839348286,0.16877038773970013,0.1695357830554828,0.1695812592555966,0.16851832521079851,0.16734226312086836,0.1661286775492227,0.1648595893547641,0.1635119295419187,0.16180159031341776,0.1603805718553305,0.15926216081890562,0.1583459318606186,0.15744259982824077,0.15614769312501525,0.15451045099972877,0.1522828730991287,0.14929876167385392,0.1455782453196124,0.1412846907178275,0.1371854166903044,0.13401432021986695,0.13259405913114644,0.13371389081098398,0.13790984518828728,0.14557708024467816,0.15648489492253848,0.1698888280692632,0.18462197968488778,0.19935170949619826,0.21271706707311305,0.22352970389758728,0.23112073958073856,0.23553006855879158,0.2377203129342037,0.2388759866267376,0.24025673257620048,0.24283332525569767,0.24699523859252065,0.2523167300812004,0.2578637703984663,0.2619762481497095,0.2627527602514304,0.2584604086262497,0.24757239566862915,0.23014568953118617,0.20691678924206827,0.17949081774670295,0.15005509476862652,0.12065749978497155,0.0938236432018587,0.07124362349039828,0.053829899639144356,0.04164978091100337,0.033719320128511615,0.02919503344336799,0.026750305226313335,0.02513772839933339,0.023404182332688192,0.02064049038547693,0.017098826753312323,0.013053321034753606,0.008934729378818574,0.005158583754373024,0.0015944057824636205,-0.0011869852174438238,-0.003042716040205353,-0.003910009647433127,-0.0038362410331351155,-0.0035824337812614265,-0.003206653781226365,-0.003576516222721906,-0.006122266720361747,-0.01283106582064325,-0.026617969652817583,-0.04900295085297819,-0.08102282240080491,-0.12221245943194732,-0.1702240483496649,-0.22089366275787692,-0.2682607910668152,-0.30580279244302083,-0.3272491992928132,-0.32761703087868654,-0.30423602686966567,-0.25688551081126165,-0.18858101400085844,-0.10503655116073013,-0.0138839897759703,0.07631266258377171,0.15781220240835864,0.22426258229778304,0.27186696287630274,0.29984905132674594,0.31017886972036185,0.3073518319011528,0.2965744169499531,0.28276739586666194,0.2695787666388534,0.2588306490395646,0.2509695901119988,0.24536905992221508,0.24141568921288933,0.23930848195096086,0.24031723638756133,0.24645998764146979,0.2594307536139921,0.2795126656870659,0.3048196805647669,0.33134246773395226,0.3540368617634911,0.368557039516755,0.37322233337850563,0.3703308791785729,0.3661652135343914,0.36943118514585854,0.38838778550937686,0.42754188232146273,0.4850140962988435,0.551627884894885,0.6122814714425497,0.6494707482065476,0.6480282781605168,0.5996973134191141,0.5060929836736053,0.37899406597984814,0.23783121309913596,0.10493899394211896,0.0,0.0,0.0,0.0,0.0,0.0,0.0,0.0,0.0,0.0,0.0,0.0,0.0,0.0,0.0,0.0,0.0,0.0,0.0,0.0,0.0,0.0,0.0,0.0,0.0,0.0,0.0,0.0,0.0,0.0,0.0,0.0,0.0,0.0,0.0,0.0,0.0,0.0,0.0,0.0,0.0,0.0,0.0,0.0,0.0,0.0,0.0,0.0,0.0,0.0,0.0,0.0,0.0,0.0,0.0,0.0,0.0,0.0,0.0,0.0,0.0,0.0,0.0,0.0,0.0,0.0,0.0,0.0,0.0,0.0,0.0,0.0,0.0,0.0,0.0,0.0,0.0,0.0,0.0,0.0,0.0,0.0,0.0,0.0,0.0,0.0,0.0,0.0,0.0,0.0,0.0,0.0,0.0,0.0,0.0,0.0,0.0,0.0,0.0,0.0,0.0,0.0,0.0,0.0,0.0,0.0,0.0,0.0,0.0,0.0,0.0,0.0,0.0,0.0,0.0
0.9261468090286505,1.0126949547953548,1.034504593302723,1.004745334079842,0.9460284266545514,0.883190069647294,0.8359792458426246,0.8142011156407357,0.8159985173184626,0.8300217968530628,0.8402333302659373,0.8315544711345628,0.7948855984091824,0.7293623199930135,0.6420063479142452,0.5449615246281515,0.4514520841142428,0.37222378364823466,0.31292637282046865,0.2735720653927126,0.24968971899036577,0.23449066422117998,0.22148466618644716,0.20615506243842371,0.18677733421170578,0.1641492290553205,0.14055448646310184,0.1187139501235968,0.1006865079038708,0.08739236599228307,0.07860873912027523,0.07327924920728708,0.0701065381160621,0.06787305296047322,0.06569831423207084,0.06310136820484673,0.05987760197365733,0.05625271372889653,0.052629770329981604,0.049551497569440404,0.047593997289418224,0.047112952652062924,0.04844934788806028,0.05155265354437703,0.0560089867628586,0.0611099240532217,0.06586924868756007,0.06971563960129039,0.07233364190978901,0.07382393396933885,0.07462585081702518,0.07465553378353468,0.07549321489798151,0.07737159980203334,0.08013312363082077,0.0833645273603477,0.08601638851075474,0.08857121895311176,0.09062716410464684,0.09185899871464129,0.09210320390367023,0.09095455745184396,0.0893784481667968,0.08749447119535712,0.08536977060461562,0.08309102943434671,0.08055451597467629,0.0784271469666396,0.0767457712912355,0.07538198557485147,0.07407885496502319,0.07244321700492029,0.0703413943978633,0.06747094183944446,0.06366809908302137,0.05901414139895903,0.053858044384338534,0.04897378965737692,0.04516250487564965,0.043250894582883406,0.043949427832894856,0.04771022161725221,0.05463673185461566,0.06432055295359408,0.07593133214546371,0.08836043199716558,0.10016911548738779,0.11067423437988834,0.11945177851938228,0.126617758318425,0.13277143616143627,0.13826818211113936,0.14460629687370516,0.15282821398058058,0.16353042089622424,0.17658266809154183,0.19049810705870998,0.20395696267876742,0.21486027012541262,0.22098816758799253,0.22039390002164735,0.21136006302552715,0.19399956535034876,0.16932266750762184,0.13941413848873246,0.10708388804872289,0.07505211804026227,0.04630890686557665,0.02282310882727017,0.005434578783049867,-0.006226123924201595,-0.013715377592686743,-0.018797145920971686,-0.02341463362622732,-0.02901273008570042,-0.036182192908887946,-0.0447646185145833,-0.05342399123964573,-0.060639031631730136,-0.06508611631929508,-0.0661382618935743,-0.06437797284182584,-0.060878405783327365,-0.0574542234992061,-0.05589396173974738,-0.05727621913247753,-0.061678865161323114,-0.06695709149020374,-0.06958248544808435,-0.06497710321868713,-0.04841417637138077,-0.01645650898505836,0.0331736174409057,0.10000558334877745,0.18080747677022052,0.2698638417991832,0.35971882175777614,0.4425207596709534,0.5111258762646664,0.5604119589181987,0.5881418599697472,0.5951844517985294,0.5854143260081985,0.5644296766945782,0.538389622223302,0.5126874133307143,0.4908033398344001,0.47411662586110287,0.46154038210262627,0.450355386809975,0.4372329666916813,0.4191759675373333,0.39474622921039737,0.3638418746718159,0.32779814866310275,0.2889502864812035,0.2499991359719035,0.21370985300975318,0.1823225914452009,0.15756174517864227,0.14066760627072572,0.13239975841873403,0.1328906073082548,0.14140462048201005,0.1560915961906381,0.1739732116125236,0.19135530612377097,0.20459363173778966,0.21129793963851154,0.21132323083647353,0.20727881695432143,0.2042192077581831,0.20823075260112145,0.2246307584775444,0.25579546553359145,0.299617755828809,0.3491867744102098,0.39381428220604,0.4216405047638842,0.42272369425836454,0.3919566947032965,0.3308750769931558,0.2476023322529709,0.1551804385984578,0.06836442897844323,0.0,0.0,0.0,0.0,0.0,0.0,0.0,0.0,0.0,0.0,0.0,0.0,0.0,0.0,0.0,0.0,0.0,0.0,0.0,0.0,0.0,0.0,0.0,0.0,0.0,0.0,0.0,0.0,0.0,0.0,0.0,0.0,0.0,0.0,0.0,0.0,0.0,0.0,0.0,0.0,0.0,0.0,0.0,0.0,0.0,0.0,0.0,0.0,0.0,0.0,0.0,0.0,0.0,0.0,0.0,0.0,0.0,0.0,0.0,0.0,0.0,0.0,0.0,0.0,0.0,0.0,0.0,0.0,0.0,0.0,0.0,0.0,0.0,0.0,0.0,0.0,0.0,0.0,0.0,0.0,0.0,0.0,0.0,0.0,0.0,0.0,0.0,0.0,0.0,0.0,0.0,0.0,0.0,0.0,0.0,0.0,0.0,0.0,0.0,0.0,0.0,0.0,0.0,0.0,0.0,0.0,0.0,0.0,0.0,0.0,0.0,0.0,0.0,0.0,0.0
0.5881418599697472,0.6391826224487708,0.6461682853828532,0.6172558844069267,0.5671793057019181,0.5126874133307143,0.46714559406931316,0.4390432112065817,0.4291296978087707,0.43169746065478115,0.4372329666916813,0.4351200131049733,0.41892215732598775,0.38660660638391997,0.3411093945865277,0.2889502864812035,0.23756964443087905,0.19418922125545796,0.1632494494257032,0.14596506295149161,0.14066760627072572,0.14379972131981344,0.15141045153419397,0.16013670229817947,0.16788930459127957,0.1739732116125236,0.1787305932387889,0.18327829910634671,0.1888778746656684,0.19663009715272917,0.20727881695432146,0.22104869092584375,0.2378691546435615,0.2572069260798118,0.27816584319011317,0.299617755828809,0.3203318257069291,0.33960965887456246,0.3573552377746933,0.3743055674288729,0.3919566947032965,0.412081208355238,0.4365581157889009,0.4664478428610527,0.5015646165649542,0.5402892024309655,0.5796642864112347,0.6164636506835941,0.6477472873365815,0.6717884370783227,0.6886217101586344,0.6996478548316025,0.7087769945597441,0.7196302122125323,0.7350590933244112,0.7561327605022655,0.7811311464854502,0.8066893891788421,0.8268294787756584,0.8346158072690142,0.8236438108458968,0.7892804869946258,0.7306440868451374,0.6499526241808786,0.552733291671922,0.44698152514460454,0.34169911899370875,0.24590696695754702,0.1665274296380172,0.10768130003192325,0.07031923944331234,0.052409542415482395,0.04986514308208515,0.057279422556281566,0.06916963136474914,0.08096631785398586,0.08961993150486447,0.09408839905185863,0.0947922224774759,0.09328390556067195,0.09161339626465938,0.09161387315831915,0.09468255908642376,0.1010635479589855,0.11005175948827066,0.12028800255862963,0.12972295258616723,0.13760927937575007,0.143318849595511,0.14690109146757718,0.1489626088525999,0.14950640296183834,0.1504055185698797,0.15256107332056432,0.1564220309676877,0.1618597386179486,0.16740116814475806,0.1727959945434723,0.1767245194263204,0.1777888329808141,0.17475686838329735,0.16616027211577056,0.15261394514717502,0.1345364511910309,0.11297281171774241,0.08952790247256674,0.06554395314990612,0.04388169962570705,0.026089904599933746,0.012935347383394425,0.004298936561836089,-0.0013222791119809965,-0.004437902432145181,-0.006657036996610038,-0.009352117863674748,-0.013241872918485234,-0.018651536260776827,-0.024142982682930584,-0.02852622228351861,-0.03083580606062268,-0.03078268239880655,-0.029293700872580496,-0.027565557242222472,-0.02742516429189599,-0.030500203707229587,-0.037511215665768836,-0.04801481017701586,-0.059000611586766574,-0.0659041141715349,-0.06296247043733703,-0.044239748932731124,-0.005290049772563135,0.05690607654834895,0.14196492977133707,0.2459661782839046,0.3616471429333534,0.47917367725724036,0.5877388849395595,0.6769153518165557,0.7384355923651226,0.7675340347994378,0.7635960706190753,0.7304021254874592,0.6749273224073459,0.606096764401797,0.5331464194318399,0.4639996030245665,0.4044699837532088,0.3573520380143832,0.3227473799674984,0.298758804064242,0.28233810251990943,0.2705286291491277,0.26066093345884994,0.2508467629191139,0.24003955557998977,0.22789255966238242,0.2148181613236398,0.20169242038743118,0.18991439601802912,0.18132030709573752,0.17791231259360557,0.1813709670816285,0.19240878755360663,0.21021720675050357,0.23226254603855193,0.25465483355673674,0.2730829087907275,0.28419894252171846,0.2869210719089138,0.28320478498136636,0.2778812019783566,0.27734421180456104,0.28755556122103454,0.3117122282844855,0.34848298273235945,0.39149433314732196,0.4303019148560403,0.4529620157201031,0.44925369121940106,0.4137611804833526,0.34783626285741254,0.25964535093259866,0.1624915024733108,0.07152829533159205,0.0,0.0,0.0,0.0,0.0,0.0,0.0,0.0,0.0,0.0,0.0,0.0,0.0,0.0,0.0,0.0,0.0,0.0,0.0,0.0,0.0,0.0,0.0,0.0,0.0,0.0,0.0,0.0,0.0,0.0,0.0,0.0,0.0,0.0,0.0,0.0,0.0,0.0,0.0,0.0,0.0,0.0,0.0,0.0,0.0,0.0,0.0,0.0,0.0,0.0,0.0,0.0,0.0,0.0,0.0,0.0,0.0,0.0,0.0,0.0,0.0,0.0,0.0,0.0,0.0,0.0,0.0,0.0,0.0,0.0,0.0,0.0,0.0,0.0,0.0,0.0,0.0,0.0,0.0,0.0,0.0,0.0,0.0,0.0,0.0,0.0,0.0,0.0,0.0,0.0,0.0,0.0,0.0,0.0,0.0,0.0,0.0,0.0,0.0,0.0,0.0,0.0,0.0,0.0,0.0,0.0,0.0,0.0,0.0,0.0,0.0,0.0,0.0,0.0,0.0
0.8236438108458968,0.8687307096649534,0.8370516047903688,0.7400855954737173,0.6007401981372263,0.4469815251446046,0.304855668482583,0.19283026735670003,0.11895805224037422,0.08119257646387033,0.07031923944331232,0.07424186348078181,0.08199956477602557,0.08657195937954035,0.08569861491583397,0.08096631785398588,0.07588766797103189,0.07372257250333077,0.07612186683358271,0.0827066571899423,0.09161339626465936,0.10059643965053798,0.10794621611311625,0.11315515301491208,0.11685594923360636,0.12028800255862965,0.12426157315487485,0.1295537836855744,0.135990005966316,0.142789299405019,0.1489626088525999,0.15307047324068263,0.15553552030605025,0.15710737487744467,0.1589017601362296,0.1618597386179486,0.1657747328216801,0.17043687203741106,0.17461870408930058,0.17663262766896093,0.17475686838329735,0.167411520199175,0.15428656693173548,0.13589620456723736,0.11364226798640034,0.08952790247256674,0.06554395314990612,0.04388169962570705,0.026089904599933746,0.012935347383394425,0.004298936561836089,-0.0013222791119809965,-0.004437902432145181,-0.006657036996610038,-0.009352117863674748,-0.013241872918485234,-0.018651536260776827,-0.024142982682930584,-0.02852622228351861,-0.03083580606062268,-0.03078268239880655,-0.029293700872580496,-0.027565557242222472,-0.02742516429189599,-0.030500203707229587,-0.037511215665768836,-0.04801481017701586,-0.059000611586766574,-0.0659041141715349,-0.06296247043733703,-0.044239748932731124,-0.005290049772563135,0.05690607654834895,0.14196492977133707,0.2459661782839046,0.3616471429333534,0.478667356542125,0.5867104812423298,0.6756503206297182,0.7374892529938503,0.7675340347994378,0.7642853313979685,0.7316186303126269,0.6762488566910201,0.6069807228382924,0.5331464194318399,0.4622463750773203,0.40121270122167346,0.35363101179291706,0.320132390611785,0.298758804064242,0.2848681781517432,0.2749580653919017,0.26544339651365395,0.25403211620637706,0.24003955557998977,0.22359332706527224,0.20716986390636377,0.19329190218772616,0.1842167886420374,0.18132030709573752,0.18433884254343075,0.19265755813820265,0.20466231281831396,0.21844370432816002,0.23226254603855193,0.2446654985745395,0.2553870517643394,0.26478348659491185,0.2737202364714525,0.28320478498136636,0.2939513416813418,0.3062895655851498,0.31997913557389235,0.3343321881021195,0.34848298273235945,0.361704257469011,0.37386410386570956,0.38559295478615496,0.39827067172878905,0.4137611804833526,0.43392175874139444,0.46010036775788954,0.4926520794643415,0.5306404931219612,0.5718755622187842,0.613074413838862,0.6514077991584561,0.6842593780784261,0.7103167253658327,0.7299899439542157,0.7448978771047511,0.7589670987432656,0.7753893098067457,0.7963662588076917,0.8223307940202694,0.8512968367544539,0.8800742728671839,0.9035936881644369,0.9165445955531066,0.9146716440863232,0.8956948488082912,0.8604603952598893,0.8120690815420073,0.7554545710075876,0.6962749214728923,0.6395474762416615,0.5890674830104642,0.546178185933382,0.5099805636787876,0.4778781988594615,0.4463918356003058,0.41253012269274086,0.3741810475279504,0.3308111645263221,0.28357293557969215,0.23487524453290015,0.1882283607763069,0.14689847164310638,0.11344789893844993,0.08926767229992288,0.07423429670730591,0.06735442825857103,0.06636150926672146,0.06849430121311195,0.07108355551385427,0.0718901900890669,0.07014014732001737,0.06574053726215175,0.05950994659376106,0.05289943872778566,0.04735620648896103,0.044670122925609,0.045502922214602656,0.049579058808099125,0.05574581511585517,0.061950189271034795,0.06678295584206993,0.06846211335372607,0.06581357203876577,0.058592191503924695,0.0471801989765896,0.033840505607065724,0.020442529045932304,0.008731414506550987,0.0,0.0,0.0,0.0,0.0,0.0,0.0,0.0,0.0,0.0,0.0,0.0,0.0,0.0,0.0,0.0,0.0,0.0,0.0,0.0,0.0,0.0,0.0,0.0,0.0,0.0,0.0,0.0,0.0,0.0,0.0,0.0,0.0,0.0,0.0,0.0,0.0,0.0,0.0,0.0,0.0,0.0,0.0,0.0,0.0,0.0,0.0,0.0,0.0,0.0,0.0,0.0,0.0,0.0,0.0,0.0,0.0,0.0,0.0,0.0,0.0,0.0,0.0,0.0,0.0,0.0,0.0,0.0,0.0,0.0,0.0,0.0,0.0,0.0,0.0,0.0,0.0,0.0,0.0,0.0,0.0,0.0,0.0,0.0,0.0,0.0,0.0,0.0,0.0,0.0,0.0,0.0,0.0,0.0,0.0,0.0,0.0,0.0,0.0,0.0,0.0,0.0,0.0,0.0,0.0,0.0,0.0,0.0,0.0,0.0,0.0,0.0,0.0,0.0,0.0
0.7675340347994378,0.8213708913561204,0.8100424003443474,0.7440618032592111,0.6437132862038435,0.5331464194318399,0.4333003025085927,0.35912656086841627,0.3156267916254238,0.2988405388056866,0.298758804064242,0.30260167701025054,0.3011248770210608,0.2893363338253861,0.26752721109251776,0.2400395555799898,0.2123544218565256,0.19052490386278553,0.17806154202155033,0.1756088233395189,0.18132030709573752,0.191520881694202,0.203251407324421,0.21430602685198222,0.22386032548094875,0.23226254603855193,0.24021090795201577,0.2488797282793761,0.2589235053902781,0.2704680377704134,0.28320478498136636,0.29653292492961664,0.3100068207786681,0.32327372178460323,0.33612871215205053,0.34848298273235945,0.36030812875420615,0.3719093453075034,0.38391393434422605,0.39738690439026886,0.4137611804833526,0.4345202122380575,0.46090035807862706,0.4933024294416027,0.5309606841777199,0.5718755622187842,0.613074413838862,0.6514077991584561,0.6842593780784261,0.7103167253658327,0.7299899439542157,0.7448978771047511,0.7589670987432656,0.7753893098067457,0.7963662588076917,0.8223307940202694,0.8512414176012079,0.8799617093073806,0.903455224627174,0.916441014314825,0.9146716440863232,0.8957820706425492,0.8606174721380049,0.8122431592823072,0.755573339995457,0.6962749214728923,0.639339114928594,0.5886817894161489,0.5457390902829183,0.5096729776871747,0.4778781988594615,0.44671117856424614,0.4130938729453611,0.3747948040116179,0.3312233516407432,0.28357293557969215,0.23431575997589787,0.18722776455325252,0.14579403142011016,0.11269538658425851,0.08926767229992288,0.07506732079097328,0.06881677105803921,0.06794794164251172,0.06955823999890058,0.07108355551385427,0.07056156709783018,0.06778045194558024,0.06314627660010363,0.05774359952293074,0.05289943872778566,0.049451112507972,0.04842618475036072,0.049688208601265535,0.05248136592271951,0.05574581511585517,0.058058196361077105,0.05945452864988874,0.05978823683844327,0.05932295921060226,0.058592191503924695,0.05759413902037737,0.05759972785133725,0.058676054020228866,0.0605110148836883,0.0625944356494281,0.06385007040057755,0.06489744420818949,0.06564000095762001,0.06613987810529343,0.06659667979493153,0.0666726105925157,0.06753800646994564,0.06916118203017367,0.07127116838402407,0.0735081970767421,0.07516343225245575,0.07676984825242668,0.07821587257391724,0.07943245862277992,0.08041971435855268,0.08102753513554337,0.08178814705236384,0.08271269049436468,0.08373776372835313,0.0847843512387372,0.0856939038891785,0.08668443307180017,0.08768292851979091,0.08856049637983368,0.08914898811892172,0.08926590705324114,0.08877719277615316,0.08751255460459784,0.08538421293817479,0.08246642432011472,0.07903129751632214,0.07573120645846768,0.07340447574585708,0.07306903721216018,0.0757838605213077,0.08242583480980933,0.09357462582864517,0.1091824787845583,0.12851444216084013,0.15016462940536085,0.17218081283635317,0.19244813123945465,0.20889207126983422,0.2198869869942089,0.22454539828941403,0.22284014470272792,0.21569780416490567,0.20465157573981327,0.19157127491980308,0.17827705025297685,0.1661364574278546,0.15591240194570846,0.14748276713637262,0.13997263401578933,0.13200870221653968,0.12206256591653818,0.10899883474144931,0.0922612481647681,0.0721500189104911,0.04983141865207999,0.027083816577995974,0.0060436379949317795,-0.011470302879324863,-0.02432617494543097,-0.032345864912379695,-0.036363933444480065,-0.03782107647483044,-0.03851894962522391,-0.04000490207605426,-0.04310280303504482,-0.04770800293201007,-0.05267328529020221,-0.0563726179149823,-0.05714859467319967,-0.05385974115770995,-0.04632981639644595,-0.035304072908365285,-0.02249698822039449,-0.010059228057434949,0.0,0.0,0.0,0.0,0.0,0.0,0.0,0.0,0.0,0.0,0.0,0.0,0.0,0.0,0.0,0.0,0.0,0.0,0.0,0.0,0.0,0.0,0.0,0.0,0.0,0.0,0.0,0.0,0.0,0.0,0.0,0.0,0.0,0.0,0.0,0.0,0.0,0.0,0.0,0.0,0.0,0.0,0.0,0.0,0.0,0.0,0.0,0.0,0.0,0.0,0.0,0.0,0.0,0.0,0.0,0.0,0.0,0.0,0.0,0.0,0.0,0.0,0.0,0.0,0.0,0.0,0.0,0.0,0.0,0.0,0.0,0.0,0.0,0.0,0.0,0.0,0.0,0.0,0.0,0.0,0.0,0.0,0.0,0.0,0.0,0.0,0.0,0.0,0.0,0.0,0.0,0.0,0.0,0.0,0.0,0.0,0.0,0.0,0.0,0.0,0.0,0.0,0.0,0.0,0.0,0.0,0.0,0.0,0.0,0.0,0.0,0.0,0.0,0.0,0.0
0.9146716440863232,0.9830926284812688,0.9776665408508203,0.9114777085387293,0.8084706991455615,0.6962749214728923,0.5986435538133154,0.5300298877800577,0.49315316252770813,0.480381390170018,0.4778781988594615,0.47087896708072596,0.4486682166443964,0.40722398828454065,0.3495221651838564,0.28357293557969215,0.21913501929917445,0.16470890387098241,0.12514591510883405,0.10099571823886871,0.08926767229992287,0.08503333903084614,0.08352475159236733,0.08134866774437369,0.07709460731670979,0.07108355551385429,0.06452900233981201,0.058885803992825614,0.055057164054638036,0.05320713585831687,0.05289943872778565,0.053370413198432894,0.05406768837427866,0.05468794519067688,0.05520846191378829,0.05574581511585518,0.05625806191534266,0.056847018339080076,0.05746403860948408,0.05804877966510629,0.058592191503924695,0.05895493157386869,0.05941878459909614,0.0601548513054898,0.06123908081830227,0.0625944356494281,0.06385007040057755,0.06489744420818949,0.06564000095762001,0.06613987810529343,0.06659667979493153,0.0666726105925157,0.06753800646994564,0.06916118203017367,0.07127116838402407,0.0735081970767421,0.07516343225245575,0.07676984825242668,0.07821587257391724,0.07943245862277992,0.08041971435855268,0.08102753513554337,0.08178814705236384,0.08271269049436468,0.08373776372835313,0.0847843512387372,0.0856939038891785,0.08668443307180017,0.08768292851979091,0.08856049637983368,0.08914898811892172,0.08926590705324114,0.08877719277615316,0.08751255460459784,0.08538421293817479,0.08246642432011472,0.07898627471342304,0.07563975924807548,0.07329198726161003,0.07298488728560869,0.0757838605213077,0.08240686446820965,0.0935197797852126,0.10909946263454881,0.1284430341826076,0.15016462940536085,0.17239479682162817,0.192880687159241,0.20942184125870408,0.22028170044670853,0.22454539828941403,0.22261175018608104,0.215313408761334,0.2042548092958992,0.19132017696849404,0.17827705025297685,0.16647723241716997,0.1564971185050925,0.1481008856301811,0.1403752815252031,0.13200870221653968,0.12146268432858946,0.10793088753730526,0.09108788165996587,0.07135434054750589,0.04983141865207998,0.02783348198665876,0.007315494013222264,-0.010139931430579294,-0.02346834344918886,-0.032345864912379695,-0.03754164954148808,-0.03987890488581025,-0.04073434464607741,-0.041472013680195506,-0.04310280303504482,-0.04636304728267394,-0.05053776072296972,-0.054390454906704334,-0.05614668136065562,-0.05385974115770995,-0.046214858442579804,-0.03173047080535358,-0.0100558331867697,0.018095151227477575,0.050852038938850035,0.08472751414297021,0.11634230793932204,0.14148861838301394,0.15586631951227287,0.15556381903541003,0.13699541620231814,0.09938131473621535,0.04374120757688818,-0.026473986380082554,-0.10552914624618298,-0.18603655734239208,-0.25956403285561547,-0.31813696813934433,-0.355215914134414,-0.36662211152777596,-0.3512395703133921,-0.3107256742656695,-0.24979171443015935,-0.1752696112928606,-0.0950761732421592,-0.01712901593641907,0.05214291996603125,0.10825751638138083,0.14939728567985222,0.1764697650434576,0.1925532032814708,0.2022005852706937,0.20988193350044074,0.2189526075157035,0.23088835328267898,0.2451171673133963,0.2596582315710938,0.2720493638697506,0.28060235123314675,0.28530694152190034,0.28806096680180093,0.2919840170871306,0.300223933801793,0.3144687282730618,0.3339235995599411,0.3552656748587996,0.373637938575906,0.38472197909305045,0.386859787274706,0.382540257597982,0.37848984143259773,0.38389622824396363,0.4074620584936409,0.45375982087481537,0.5203681608864619,0.5968673150110035,0.6664750438748065,0.7097889572244228,0.7100549994860729,0.6581960641749416,0.5559680781280213,0.4165941345243579,0.2615391601977358,0.11543926513897129,0.0,0.0,0.0,0.0,0.0,0.0,0.0,0.0,0.0,0.0,0.0,0.0,0.0,0.0,0.0,0.0,0.0,0.0,0.0,0.0,0.0,0.0,0.0,0.0,0.0,0.0,0.0,0.0,0.0,0.0,0.0,0.0,0.0,0.0,0.0,0.0,0.0,0.0,0.0,0.0,0.0,0.0,0.0,0.0,0.0,0.0,0.0,0.0,0.0,0.0,0.0,0.0,0.0,0.0,0.0,0.0,0.0,0.0,0.0,0.0,0.0,0.0,0.0,0.0,0.0,0.0,0.0,0.0,0.0,0.0,0.0,0.0,0.0,0.0,0.0,0.0,0.0,0.0,0.0,0.0,0.0,0.0,0.0,0.0,0.0,0.0,0.0,0.0,0.0,0.0,0.0,0.0,0.0,0.0,0.0,0.0,0.0,0.0,0.0,0.0,0.0,0.0,0.0,0.0,0.0,0.0,0.0,0.0,0.0,0.0,0.0,0.0,0.0,0.0,0.0
0.9443925177286018,1.0256493540288494,1.0367980491517912,0.9912928690795414,0.9128569304911335,0.8281030639514093,0.7589030362276824,0.717258985277007,0.703170245518663,0.7065387504518721,0.7118136101742168,0.703595001943681,0.6718612228390207,0.61438975445308,0.5367017609675232,0.4495686913377539,0.36515731583895167,0.2936713479829682,0.24068769696195036,0.20654221729039182,0.18732377250129098,0.17682569402309894,0.16906459056858048,0.1597797086655398,0.14722009180155818,0.13190565308141403,0.11565648421952845,0.10075488029239969,0.08890817125017984,0.08087467578350002,0.07648753366153707,0.07489989016486474,0.0751868015125656,0.07648935030427027,0.07818331956116915,0.07986554935842691,0.08116702696730722,0.0820510335703166,0.0825499458362732,0.0828439895333347,0.08324356505531674,0.08395108992485176,0.08542224690037217,0.08786104234191691,0.0912067479787634,0.09511417989147099,0.09885965366330877,0.10205726534863722,0.10442278716695463,0.10597051704946325,0.10698479472762523,0.10720038494135936,0.10810244755408646,0.10987882927156649,0.11240069944363396,0.11533414882984185,0.1177295786870989,0.12010415201251882,0.12209423655050468,0.12336229839624165,0.12368350293205847,0.12259491709821488,0.12088263333351644,0.11864971449970747,0.11600939755415175,0.11313308583410064,0.11001487723550474,0.10735510010451976,0.10528909163221953,0.10376966938642858,0.10258266873614284,0.10130215229308345,0.09973436469149499,0.09753124155080965,0.09447722242296888,0.09059644847747923,0.08616580976374079,0.08191529179609464,0.07865790220709047,0.07728336455565912,0.07861022821881564,0.08322005310381352,0.09135073137504855,0.10268842248419077,0.11642152988068145,0.13135536743276285,0.14575969569999508,0.15873653254528297,0.16952800260756404,0.17789460102494023,0.18410050664671007,0.18806180583930782,0.1913152555086678,0.1950197688305802,0.20009261285741314,0.20689441600025055,0.21450406343233425,0.22225002243237962,0.22856761169311554,0.2316267920943183,0.22968832535379102,0.22116902241891745,0.20591663981904484,0.18453823277566733,0.1586067430368157,0.13041129479187966,0.10227476704716808,0.07690055673934117,0.05615117675281138,0.040943447761961675,0.03113426422996828,0.025427392655168007,0.022434499981223384,0.020460432501086458,0.01816001950562072,0.014853186113734405,0.010378673302736497,0.005676478873526309,0.0017328299185301772,-0.0006820149642179267,-0.0014278920024994644,-0.0014557731581641285,-0.0019540121695919084,-0.004655426468459021,-0.011020174873376039,-0.02154649200508937,-0.03551542968971787,-0.049702259225341994,-0.0593742284518478,-0.05867712552250607,-0.04166509200767928,-0.0039404957795386875,0.05738744735548134,0.14180084615712865,0.24525094658389504,0.36037349410376146,0.47726637228267843,0.5851123007363384,0.6734946053056121,0.7341736298638424,0.7624120802152021,0.7575914755847448,0.7235182268779045,0.6671354866152561,0.5973273689826668,0.5233042732196416,0.4529786005167842,0.39226954504988176,0.3440762828677469,0.3086354195238057,0.2841964662240811,0.26781596472178515,0.2566811689338471,0.24813938560211096,0.2402297223068989,0.23174051834587625,0.22204801797612683,0.21126255890865434,0.19984200949698638,0.1887219197631921,0.17928457046767135,0.1731467713714336,0.1718075420904027,0.1760088326458113,0.1852609164152363,0.1976486593499074,0.21013759705449572,0.21945697913566686,0.2232603551937517,0.221290929675451,0.21601274823214345,0.2123475746439072,0.2164086728241696,0.23349735641351546,0.265930536819988,0.3114436483721462,0.3628271735179862,0.40904590700276067,0.43782227039627786,0.4388619270765519,0.40687454851214894,0.3434467988790668,0.2570076049983924,0.16107987363639759,0.07096763849045745,0.0,0.0,0.0,0.0,0.0,0.0,0.0,0.0,0.0,0.0,0.0,0.0,0.0,0.0,0.0,0.0,0.0,0.0,0.0,0.0,0.0,0.0,0.0,0.0,0.0,0.0,0.0,0.0,0.0,0.0,0.0,0.0,0.0,0.0,0.0,0.0,0.0,0.0,0.0,0.0,0.0,0.0,0.0,0.0,0.0,0.0,0.0,0.0,0.0,0.0,0.0,0.0,0.0,0.0,0.0,0.0,0.0,0.0,0.0,0.0,0.0,0.0,0.0,0.0,0.0,0.0,0.0,0.0,0.0,0.0,0.0,0.0,0.0,0.0,0.0,0.0,0.0,0.0,0.0,0.0,0.0,0.0,0.0,0.0,0.0,0.0,0.0,0.0,0.0,0.0,0.0,0.0,0.0,0.0,0.0,0.0,0.0,0.0,0.0,0.0,0.0,0.0,0.0,0.0,0.0,0.0,0.0,0.0,0.0,0.0,0.0,0.0,0.0,0.0,0.0
0.7624120802152021,0.8152037273189396,0.8029341864324129,0.7360735750553212,0.6348355229667731,0.5233042732196416,0.42242111467157234,0.3471452770709259,0.30256449588500733,0.2848595462223719,0.2841964662240811,0.2880059146850153,0.287149780020072,0.27667905296151624,0.2568215507687468,0.23174051834587628,0.20666631273867292,0.1872347017347625,0.17649200128475964,0.17460153561868844,0.17928457046767135,0.18659634447536214,0.19341187226034504,0.1976101579612887,0.1987081581329343,0.1976486593499074,0.19596155691996653,0.19571926743201662,0.19848815549652546,0.20517639722804498,0.21601274823214345,0.23061988564653413,0.24838239186506575,0.2684384001737704,0.28980126421206437,0.3114436483721462,0.33239696545141195,0.35209388599740526,0.3705070419627545,0.38831928336095967,0.40687454851214894,0.42786172885233503,0.45287827743696235,0.4828158347385492,0.5174266487471649,0.5551788374690677,0.5934810441148001,0.6293831573352663,0.6603301091031792,0.6849434707366213,0.7034831264259864,0.7174056630910367,0.730453887980466,0.745705261427786,0.765324940801619,0.7897882287358859,0.8171753474174277,0.844454198029754,0.8666924840433987,0.8786611871791136,0.8760933310457854,0.8565545830406107,0.8207317895483682,0.771547950640005,0.7138178522774549,0.6531925093556811,0.594769741216391,0.5426427994094677,0.4985154367263359,0.4618451594936262,0.43029168766557674,0.40040193796842005,0.36913594516801607,0.3341602392166147,0.2946442176816236,0.2514382990442761,0.20666111961306913,0.16364462522442327,0.12553480068741862,0.09477419955015935,0.07258491042297555,0.058609678506024165,0.051607496481755465,0.04922464154484478,0.04883153097022666,0.0481548158435096,0.04550064400295548,0.040874935491158865,0.03487334882353409,0.028701917644155767,0.02372472126404365,0.02064734262521018,0.020441855202322338,0.022846339174455457,0.026971398918650354,0.03163074670762798,0.03531778152773399,0.03795069371701377,0.03931986210694436,0.039663883245900665,0.03953677215121231,0.03913551647178415,0.03969481667408778,0.041327535485423235,0.04374723169529781,0.04644731547654647,0.048462314951306776,0.05025541457017995,0.05164779456029938,0.05262780885833561,0.053357858801880625,0.053636281394622114,0.05458147491843174,0.05622623604329682,0.058369732116282096,0.06070651138799879,0.06262944858700806,0.0645472308074765,0.06623872194091113,0.06747348437152037,0.06805516397411693,0.06767466925287505,0.06662019929764045,0.06478743166643161,0.062115476196455556,0.058691172220300014,0.05469769614930359,0.050960241264583504,0.048246064184018625,0.04742008755259493,0.049327180466483114,0.05454017366686566,0.06352645964158747,0.07618487167063326,0.09187478127682788,0.10943424539520093,0.12727431309293658,0.14368544054911947,0.1569849915893332,0.16584751869039993,0.16954131032391873,0.1680431527805483,0.16206734685139804,0.15284148087349156,0.14185946182847708,0.13057114395119881,0.1200886928251854,0.11107099999719179,0.10360137490207334,0.09731574549356847,0.09160097757847886,0.08580542059201193,0.07951182210252809,0.07254311031226938,0.06500442220357207,0.05719948429692323,0.04947106253480794,0.04215492756906142,0.03536330889845252,0.029000021770722736,0.022797991015367586,0.01636992359243817,0.009404695332820127,0.0016130009743180705,-0.007149506185206725,-0.01681692794058444,-0.027087642541734683,-0.03726099477385956,-0.046381863710875416,-0.053226779358712985,-0.05643184689653647,-0.05475744160523473,-0.04726210118151947,-0.033800348683389006,-0.015194569576084869,0.006711062324089393,0.029204821216861215,0.04924688988835135,0.06390864740319668,0.07105647061022566,0.06985397154471525,0.06096142755094704,0.04650139957408001,0.029461869883369556,0.013055994723827614,0.0,0.0,0.0,0.0,0.0,0.0,0.0,0.0,0.0,0.0,0.0,0.0,0.0,0.0,0.0,0.0,0.0,0.0,0.0,0.0,0.0,0.0,0.0,0.0,0.0,0.0,0.0,0.0,0.0,0.0,0.0,0.0,0.0,0.0,0.0,0.0,0.0,0.0,0.0,0.0,0.0,0.0,0.0,0.0,0.0,0.0,0.0,0.0,0.0,0.0,0.0,0.0,0.0,0.0,0.0,0.0,0.0,0.0,0.0,0.0,0.0,0.0,0.0,0.0,0.0,0.0,0.0,0.0,0.0,0.0,0.0,0.0,0.0,0.0,0.0,0.0,0.0,0.0,0.0,0.0,0.0,0.0,0.0,0.0,0.0,0.0,0.0,0.0,0.0,0.0,0.0,0.0,0.0,0.0,0.0,0.0,0.0,0.0,0.0,0.0,0.0,0.0,0.0,0.0,0.0,0.0,0.0,0.0,0.0,0.0,0.0,0.0,0.0,0.0,0.0
0.8760933310457854,0.9402481596080605,0.9329114559363688,0.8666391871384365,0.7644996455271994,0.6531925093556811,0.555788349620962,0.48646629481296044,0.4481526596266971,0.43379372416537876,0.43029168766557674,0.42354704857589365,0.4032026396487884,0.36521316188831093,0.3121654767042428,0.2514382990442761,0.19211409179297806,0.14207089275519755,0.10575782875328862,0.08357060981863626,0.07258491042297553,0.06812095126166899,0.06565112778154915,0.062026477725928855,0.0560348234311496,0.048154815843509606,0.03971714378840158,0.03234632579915715,0.027116017165199145,0.024350887125083816,0.023724721264043645,0.02441265129630313,0.025861003899854896,0.027648357560272764,0.029590266359806685,0.03163074670762798,0.03359282571804616,0.03545163993223762,0.03709192333354026,0.03844223603116332,0.03953677215121231,0.04044245760583147,0.041441886852207774,0.04274781148272084,0.04444648546164471,0.04644731547654647,0.048462314951306776,0.05025541457017995,0.05164779456029938,0.05262780885833561,0.053357858801880625,0.053636281394622114,0.05458147491843174,0.05622623604329682,0.058369732116282096,0.06070651138799879,0.06262944858700806,0.0645472308074765,0.06623872194091113,0.06747348437152037,0.06805516397411693,0.06767466925287505,0.06662019929764045,0.06478743166643161,0.062115476196455556,0.058691172220300014,0.05469769614930359,0.050960241264583504,0.048246064184018625,0.04742008755259493,0.049327180466483114,0.05454017366686566,0.06352645964158747,0.07618487167063326,0.09187478127682788,0.10943424539520093,0.12740970224734485,0.1439604336568507,0.15732325841818895,0.1661005679602301,0.16954131032391873,0.16801864856907256,0.16206663619971715,0.15288736889727447,0.1419217726337612,0.13057114395119881,0.12003139213579915,0.11093129912045091,0.10340832048038034,0.09715926630637624,0.09160097757847886,0.08589741325644666,0.07968069995298276,0.07273221501140234,0.06513378872048597,0.057199484296923224,0.04915313156355568,0.041554106696624606,0.03466843583482343,0.028507575330351594,0.02279799101536759,0.016827251237509527,0.010198045492730668,0.0024580333533755555,-0.006597056639787203,-0.01681692794058444,-0.02791170552276081,-0.03871504910604983,-0.04795651227022611,-0.05427218724552755,-0.05643184689653647,-0.053853906065964574,-0.04584688368477065,-0.032491731261620325,-0.014505460613366251,0.00671106232408939,0.0286645077397731,0.049037743972285476,0.06482951619304765,0.0728156330694951,0.06985397154471526,0.05282018421813989,0.02065634437078847,-0.026297185058725633,-0.08564684362785825,-0.15291839042754965,-0.22256261397040086,-0.2866599647093849,-0.33757680170973775,-0.36872264846356856,-0.37569075239981453,-0.3578869269222444,-0.31630192831432513,-0.25529946570980067,-0.18130258908737362,-0.10176570356406202,-0.024129113866316554,0.04544359133687836,0.1024761570239267,0.144713043043608,0.17215934527169052,0.18671095537382898,0.19172127212259626,0.19098112942246853,0.18801950640988668,0.18548611021567488,0.18480413140368737,0.18633123888409042,0.18958820069461715,0.19387652320236237,0.19881287515965923,0.20460262289842623,0.21199632175717997,0.22179936467561406,0.23431359861683843,0.2488992385524362,0.2639537050819215,0.2773747856756776,0.287511426987746,0.2941251147326526,0.2989856019452132,0.3057378040458537,0.3187523688954868,0.34160540643577963,0.37530530279105395,0.4172424729679118,0.46139815008550505,0.500009347765715,0.5262591214665577,0.537161854939527,0.5354993439906104,0.5298392961055701,0.5324784335771325,0.5552465756190281,0.604915648421644,0.6794806641830595,0.7669052588578903,0.8466642101477395,0.89494291414457,0.8910014589223302,0.8234619843755087,0.6945861908277292,0.5200104693150271,0.3262671113177462,0.14393813305667513,0.0,0.0,0.0,0.0,0.0,0.0,0.0,0.0,0.0,0.0,0.0,0.0,0.0,0.0,0.0,0.0,0.0,0.0,0.0,0.0,0.0,0.0,0.0,0.0,0.0,0.0,0.0,0.0,0.0,0.0,0.0,0.0,0.0,0.0,0.0,0.0,0.0,0.0,0.0,0.0,0.0,0.0,0.0,0.0,0.0,0.0,0.0,0.0,0.0,0.0,0.0,0.0,0.0,0.0,0.0,0.0,0.0,0.0,0.0,0.0,0.0,0.0,0.0,0.0,0.0,0.0,0.0,0.0,0.0,0.0,0.0,0.0,0.0,0.0,0.0,0.0,0.0,0.0,0.0,0.0,0.0,0.0,0.0,0.0,0.0,0.0,0.0,0.0,0.0,0.0,0.0,0.0,0.0,0.0,0.0,0.0,0.0,0.0,0.0,0.0,0.0,0.0,0.0,0.0,0.0,0.0,0.0,0.0,0.0,0.0,0.0,0.0,0.0,0.0,0.0
0.8234619843755087,0.8953124942689455,0.9068897838685006,0.8700539093421787,0.8054509417916582,0.7360406709809632,0.68052244391698,0.6486890903799352,0.6398316901489255,0.6444866928751735,0.6486193575864175,0.6386934645806823,0.6060385666253207,0.549120483663797,0.4733740917238325,0.38891828357658725,0.3071540407743048,0.23746513306986355,0.18501044357468724,0.15012262446504324,0.12921720956675703,0.11666938071953417,0.10683616150699968,0.0956644588421812,0.08140288362537301,0.06443899599959321,0.046496262940026865,0.029745081002365746,0.015920815126096447,0.005900154226130734,-0.0003392175675706259,-0.0035480990136518968,-0.004641404777050855,-0.004559282752246065,-0.004054622453997727,-0.0036445244228705963,-0.00369673136061262,-0.004251559684791914,-0.0051920737473892834,-0.006227493321671123,-0.006949831278170579,-0.007002353873559162,-0.006017428086762012,-0.003886125991195071,-0.0007872358129434299,0.0028386615773472097,0.006396741344413284,0.00934943039099637,0.011354715851605222,0.01236719363470853,0.012627154432864997,0.012171205978616206,0.012182501046033325,0.012818661139362454,0.013958174696060997,0.015327404933275243,0.016329331007207293,0.01738313294544038,0.018205513650897613,0.018501023358737035,0.01802765543368549,0.01639607564490404,0.01407049624561145,0.010919553828264407,0.0068504372150918385,0.0019486521345674216,-0.003530405479834413,-0.00864421680636696,-0.012632098572072039,-0.014700865658254474,-0.014130351164550654,-0.010380949677329658,-0.003212540857242975,0.007083325091027127,0.01975427540593151,0.03368327163307496,0.04721911487110169,0.05943860768277708,0.06947504867309356,0.07685482187394868,0.08149689443070057,0.08293510033533745,0.08229815047215483,0.0805775091414557,0.07878917192359965,0.07769750708169827,0.07705722514025151,0.0770570456536826,0.07715187931735859,0.07645296640807994,0.07389811973269594,0.06813852854818102,0.05883260584429472,0.04607535647363727,0.030640481861369,0.013844316878074624,-0.003056355476973504,-0.018310043942264907,-0.030751182205677498,-0.03992293285926875,-0.04620948597654669,-0.051010131073821394,-0.055589799090465915,-0.06125778381537241,-0.06877415465579878,-0.0780832458098847,-0.08862383663261876,-0.09860439740109232,-0.10624017693094807,-0.11016194202739323,-0.10995700564322268,-0.10683026076761089,-0.10236416299712255,-0.09890042398804672,-0.09856227085908623,-0.10242945427338922,-0.11026655217986428,-0.11893349985322971,-0.12347587507361472,-0.11760931861629352,-0.09490190290355578,-0.05062459048658374,0.01829095951784409,0.11131024415933981,0.22414768646669928,0.3490360499148876,0.4750637086872583,0.591472124385503,0.6879546954461898,0.7565902183301778,0.792974002733331,0.7959742022034052,0.7698658164356184,0.7216898048839653,0.6603780356240418,0.5951340561813073,0.5338568688550481,0.48215754695818547,0.44263515549121335,0.4151017689324614,0.39729410962928363,0.3858517569865754,0.37748390704016477,0.36954784565412085,0.36050378466166016,0.3499227929763631,0.3382287763980033,0.32639184487430895,0.3156217379022942,0.30722992628595464,0.30255147632344254,0.3028551390894172,0.3090132191371389,0.3212585581438322,0.3387734734181846,0.3595220909199619,0.3805199249993661,0.3983725767367093,0.41049608645697083,0.4160478198809188,0.4164927055164812,0.41545372435575706,0.41742902181945385,0.42640996873938114,0.44407055866382966,0.4687157691553098,0.495504267639593,0.5177935551544222,0.5299464306817879,0.529906512823289,0.5209388327941384,0.511620257384564,0.5134726460967866,0.5373445263803125,0.5889059471649878,0.6651920279544837,0.7533113698168927,0.8330953498056455,0.8809755246585188,0.8766994996136488,0.8094452231148291,0.6812912917895587,0.509095479864207,0.31894027332997776,0.14055361502162245,0.0,0.0,0.0,0.0,0.0,0.0,0.0,0.0,0.0,0.0,0.0,0.0,0.0,0.0,0.0,0.0,0.0,0.0,0.0,0.0,0.0,0.0,0.0,0.0,0.0,0.0,0.0,0.0,0.0,0.0,0.0,0.0,0.0,0.0,0.0,0.0,0.0,0.0,0.0,0.0,0.0,0.0,0.0,0.0,0.0,0.0,0.0,0.0,0.0,0.0,0.0,0.0,0.0,0.0,0.0,0.0,0.0,0.0,0.0,0.0,0.0,0.0,0.0,0.0,0.0,0.0,0.0,0.0,0.0,0.0,0.0,0.0,0.0,0.0,0.0,0.0,0.0,0.0,0.0,0.0,0.0,0.0,0.0,0.0,0.0,0.0,0.0,0.0,0.0,0.0,0.0,0.0,0.0,0.0,0.0,0.0,0.0,0.0,0.0,0.0,0.0,0.0,0.0,0.0,0.0,0.0,0.0,0.0,0.0,0.0,0.0,0.0,0.0,0.0,0.0
0.792974002733331,0.853432049486508,0.8489625321772983,0.7901961298318534,0.6975350867002021,0.5951340561813073,0.5036891063401329,0.43782419520817134,0.40206961308010103,0.3920031448120077,0.39729410962928363,0.40503251220384534,0.4061933838447686,0.3961978887316125,0.37584417757248617,0.3499227929763631,0.32411153755349,0.3045498702582796,0.2945974425659092,0.294634635363216,0.30255147632344254,0.3144212584321798,0.3273658828343941,0.33937533103101325,0.3499006974632787,0.3595220909199619,0.368896268763167,0.3791763868300299,0.39076231659995625,0.4034240687771389,0.4164927055164812,0.4289563009123658,0.4404170999908223,0.4507197690994189,0.4600347478719434,0.4687157691553098,0.4769865010688038,0.4854991628768271,0.49497532382774273,0.5063893684104314,0.5209388327941384,0.5396886019247531,0.5637051737315899,0.5932856952737058,0.6277191458187541,0.6651920279544837,0.7028532763512755,0.7379036093880028,0.7679318853056589,0.7916845009025818,0.8094452231148291,0.8223829292963314,0.8341924718818194,0.8477771050904482,0.8651996180985384,0.88697202063818,0.9112031162168421,0.9354489391741149,0.9553528338164275,0.9662909238770953,0.9644988181615309,0.9476265548620604,0.9165671392860766,0.8739593246028463,0.8240703530915866,0.7718424322401194,0.7214490202469116,0.6765844720083696,0.6385948952432147,0.6068517043598323,0.5791860463187078,0.5523182705757881,0.5238630237400198,0.49191335948182535,0.4559084479998553,0.4167437060554054,0.3761583652951652,0.33734006691370444,0.302965253622188,0.2750012729853053,0.254301365792103,0.240137221962915,0.23156980738091737,0.22649228428342502,0.22264911471189947,0.2182027336122278,0.21172160918120758,0.203796774149534,0.19530117545285688,0.18759731740594998,0.18210410143235267,0.17936344487684136,0.18044882469378945,0.1849875683747655,0.19191123917149852,0.19977842125951756,0.20655800941501332,0.21201904159912366,0.2156212283036589,0.21731518410004544,0.21745274108668244,0.21589708223712795,0.2142117668953821,0.21277532260766277,0.21165757234655447,0.21072149636476722,0.20911376077140142,0.20769764957382922,0.20638938462632608,0.20514245048766414,0.20399025164285198,0.20242783193128713,0.20157809219027117,0.20140110401371367,0.20168804552734143,0.20217443367861132,0.2020099013842779,0.20195678729859382,0.20185866347476597,0.20144872352582952,0.20035861571437066,0.19752064002094477,0.19336741348773523,0.18768680177206,0.1804758872864602,0.17205960074757917,0.16265328172002733,0.15390928001413842,0.14709087800394854,0.14339960157715784,0.14376058578078768,0.14830685458017054,0.15734077102101982,0.1702176326428311,0.18578390954696272,0.20256814125983022,0.21891346606059134,0.2336664846802958,0.24584309616022856,0.25501104468751784,0.26137569673887273,0.26563125826346484,0.26911915626485905,0.2730443338174994,0.2783052517663766,0.2852122027693527,0.29322760410283316,0.30138117576438556,0.30796126281148695,0.3110684882782929,0.3090487087998327,0.3007520297711952,0.2861791939517157,0.2659466765326066,0.24137270114098125,0.21428598498214316,0.18671673243090284,0.16116061218085864,0.13994136294290813,0.12534761460197938,0.11952326116445365,0.12411417973380336,0.14027311763501968,0.167669132086272,0.20433130008947722,0.24660483779729195,0.28942353618620736,0.3275169851923238,0.3559856034381441,0.3716151018060684,0.3736864144301302,0.3640586704844172,0.3470011155168982,0.3274731619698958,0.3098212982546975,0.2964567951311276,0.2870316321758293,0.2788947310379517,0.2676156684658487,0.24869776293658127,0.21922717583212506,0.17899729534509298,0.13113924092565815,0.08111811390337637,0.03545847980589849,0.0,0.0,0.0,0.0,0.0,0.0,0.0,0.0,0.0,0.0,0.0,0.0,0.0,0.0,0.0,0.0,0.0,0.0,0.0,0.0,0.0,0.0,0.0,0.0,0.0,0.0,0.0,0.0,0.0,0.0,0.0,0.0,0.0,0.0,0.0,0.0,0.0,0.0,0.0,0.0,0.0,0.0,0.0,0.0,0.0,0.0,0.0,0.0,0.0,0.0,0.0,0.0,0.0,0.0,0.0,0.0,0.0,0.0,0.0,0.0,0.0,0.0,0.0,0.0,0.0,0.0,0.0,0.0,0.0,0.0,0.0,0.0,0.0,0.0,0.0,0.0,0.0,0.0,0.0,0.0,0.0,0.0,0.0,0.0,0.0,0.0,0.0,0.0,0.0,0.0,0.0,0.0,0.0,0.0,0.0,0.0,0.0,0.0,0.0,0.0,0.0,0.0,0.0,0.0,0.0,0.0,0.0,0.0,0.0,0.0,0.0,0.0,0.0,0.0,0.0
0.9644988181615309,1.0411089419823538,1.041823664947403,0.9801049955731558,0.8806305218443006,0.7718424322401194,0.6780089712742375,0.613977139709222,0.582459503410996,0.5755798374159615,0.5791860463187078,0.5781836523640478,0.561924994618312,0.5266002569990493,0.4754757546309789,0.4167437060554054,0.35999097268569774,0.3133442141953968,0.28095018025302293,0.2625197361468307,0.254301365792103,0.25084046521185693,0.24735573785179055,0.24086586454581282,0.2307273313851756,0.2182027336122278,0.2053129383553575,0.19433783686576683,0.18668980900611634,0.18276277205245348,0.18210410143235267,0.1835901191912971,0.18652744048772374,0.19036967034792746,0.19484397472466372,0.19977842125951756,0.20465289713530116,0.20925538836445276,0.21315402442929612,0.2159603871999747,0.21745274108668244,0.2173648430574893,0.21617381483393397,0.2143703641964736,0.2124428695990449,0.21072149636476722,0.20911376077140142,0.20769764957382922,0.20638938462632608,0.20514245048766414,0.20399025164285198,0.20242783193128713,0.20157809219027117,0.20140110401371367,0.20168804552734143,0.20217443367861132,0.2020099013842779,0.20195678729859382,0.20185866347476597,0.20144872352582952,0.20035861571437066,0.19752064002094477,0.19336741348773523,0.18768680177206,0.1804758872864602,0.17205960074757917,0.16265328172002733,0.15390928001413842,0.14709087800394854,0.14339960157715784,0.14376058578078768,0.14830685458017054,0.15734077102101982,0.1702176326428311,0.18578390954696272,0.20256814125983022,0.2186666522810715,0.23316517356303762,0.24522643735265295,0.254549737081569,0.26137569673887273,0.2659827721078358,0.2697436896688716,0.2737273201277739,0.2787651643600904,0.2852122027693527,0.292298693005248,0.29964812981192,0.3059741023248771,0.3096673465555675,0.3090487087998327,0.3020747843478519,0.2884914660688896,0.26843914373097766,0.24302987371137422,0.21428598498214316,0.18418007825115307,0.15657709798274463,0.13483213392271687,0.12183362646558073,0.11952326116445365,0.12766772961540376,0.14646094088695852,0.17432684455198233,0.20875919053744874,0.24660483779729195,0.2834635599666308,0.31687139285606947,0.34421813391079076,0.3635621749857385,0.3736864144301302,0.3731413924471106,0.3632185986087768,0.34547262139273055,0.3222578562779782,0.2964567951311276,0.27040038272196193,0.24762352200046317,0.2306234227242843,0.22100189468885745,0.21922717583212506,0.22415350253193186,0.23459860925556117,0.24852050817556537,0.26381913821420083,0.278769492759363,0.2919954837357069,0.3036977406199094,0.31452542500365493,0.3256348126422389,0.338311809686601,0.35333661247804254,0.3714752956530899,0.3924318019933786,0.4152275741440147,0.4384990485258,0.4607795579665066,0.48151237326930796,0.5006613890630048,0.5191362397412,0.5386862873649989,0.5613396369534905,0.5893920129228445,0.6239278821251074,0.6646003522516203,0.7094748511016054,0.7551910368677704,0.7980650236436693,0.8344742918740166,0.8620258877599272,0.8802634148382118,0.8907927758433932,0.8970784834274476,0.9031498839944718,0.9124523055308423,0.9266753160783334,0.9448949315940508,0.9640159203366795,0.9788249148202706,0.9834943884890466,0.9730872173184552,0.9446583170549703,0.898716562082342,0.8382309295488235,0.7682717650016284,0.6948553802309488,0.6235047389470858,0.5587672453063138,0.5028579660155421,0.45593935909223854,0.4166235431434426,0.3826120156588482,0.3518657993134723,0.3225553305307215,0.2934904930144574,0.2640860733691851,0.2340250124921325,0.2036017078459346,0.17289328404402815,0.14206979865117728,0.1115486035949277,0.08195045979145285,0.054770153299244485,0.031332359014614994,0.012826118814160027,0.0,0.0,0.0,0.0,0.0,0.0,0.0,0.0,0.0,0.0,0.0,0.0,0.0,0.0,0.0,0.0,0.0,0.0,0.0,0.0,0.0,0.0,0.0,0.0,0.0,0.0,0.0,0.0,0.0,0.0,0.0,0.0,0.0,0.0,0.0,0.0,0.0,0.0,0.0,0.0,0.0,0.0,0.0,0.0,0.0,0.0,0.0,0.0,0.0,0.0,0.0,0.0,0.0,0.0,0.0,0.0,0.0,0.0,0.0,0.0,0.0,0.0,0.0,0.0,0.0,0.0,0.0,0.0,0.0,0.0,0.0,0.0,0.0,0.0,0.0,0.0,0.0,0.0,0.0,0.0,0.0,0.0,0.0,0.0,0.0,0.0,0.0,0.0,0.0,0.0,0.0,0.0,0.0,0.0,0.0,0.0,0.0,0.0,0.0,0.0,0.0,0.0,0.0,0.0,0.0,0.0,0.0,0.0,0.0,0.0,0.0,0.0,0.0,0.0,0.0
0.9730872173184552,1.0417746051386092,1.0292553175763444,0.949333718707818,0.8278051761570145,0.6948553802309488,0.57691546506525,0.49087137600471814,0.44115974464405694,0.4210106883029289,0.4166235431434426,0.41257764060626173,0.3971706267304314,0.3652109924257572,0.31852271123772224,0.2640860733691851,0.21077417840216228,0.16643643841446984,0.13546496353330628,0.1181697089342006,0.11154860359492769,0.11086938089610444,0.11175037269673695,0.11127296554988783,0.10849128006882337,0.10408110691225135,0.09937346869488382,0.09587162295866677,0.094358525109875,0.09481145317632514,0.09661361022957497,0.09877085171727625,0.10081175204713186,0.10255676961970438,0.10415727692551299,0.10587897319114718,0.10767090710220799,0.10965213976194518,0.11167476393329683,0.11354612217086928,0.11514433615271938,0.11625116204843661,0.11720596758820233,0.11829563065353532,0.11974220500358748,0.12158692503683219,0.12351943195118906,0.12534416949941135,0.12678913879356749,0.1276881847479805,0.12802951392094497,0.12739030697035808,0.12692991286427602,0.1266993365180018,0.12660292913915752,0.12651219199528488,0.12598041061407864,0.12568183557605192,0.12554420300914929,0.12539404919353264,0.12499487006962483,0.12389335094489601,0.12224199033410947,0.1198130840277615,0.11647390965337008,0.11230268517515896,0.10754250859893001,0.10307687486542218,0.0997115437704628,0.09829984990562769,0.0996105002806931,0.10413763571247187,0.11213355008306035,0.1232693644397184,0.13673450434442644,0.15135087828655194,0.16591984697972445,0.1791070876065573,0.18989128536058206,0.1978052253832188,0.2030912562924108,0.20700346446275364,0.21065880749365196,0.21526383014189307,0.22162131780342476,0.2298563918658976,0.23929258483430046,0.24860166141340476,0.2558839436466931,0.2591247951294046,0.2566215274393844,0.24700884500049386,0.23056294948444053,0.20829756501715607,0.18204594170672186,0.15410369650811798,0.12648418675151363,0.10146318029740799,0.08040796929612495,0.06386770216868648,0.05158586557685157,0.04240128589965869,0.035373416927746384,0.029309082163457244,0.023256991660614415,0.01666909716476237,0.009111491117567197,0.0012124964649210814,-0.0064087402935335885,-0.013078091018753095,-0.01824767124732682,-0.02199288499216567,-0.023837978742242305,-0.023767380502490835,-0.02190993800103923,-0.018578991082097637,-0.014878535874007713,-0.011349769741641334,-0.009401253802374353,-0.011060805477065536,-0.018910310916868442,-0.03636620420455247,-0.06526281375490846,-0.10660877089639609,-0.15951819033853157,-0.2208155870212337,-0.28581997072012283,-0.34653444640917413,-0.39456702505515523,-0.42197355990036733,-0.4227208631255989,-0.3948185849853962,-0.3381682452780473,-0.2569188727367971,-0.1582143219945035,-0.05112115794021233,0.05458360113827303,0.1502205852120606,0.2287768010480466,0.28594216539653644,0.3204785472451743,0.3339452790814443,0.33059387399796875,0.31575461835908547,0.29501236753216914,0.2732596453163781,0.25397431949044313,0.23931028594911813,0.22991885824418412,0.22562582286674693,0.22604074338758187,0.2309470289576368,0.24045617738859593,0.254560895736478,0.27269143110934835,0.2933464906258303,0.3141235568830305,0.3323312755316772,0.345947408448799,0.3546923526158319,0.3606522378640787,0.3680618870227848,0.3820661045324089,0.4068676848332884,0.443761037327246,0.489942034365157,0.5387442923101063,0.5814438928599892,0.6103368033782134,0.621950900532726,0.6192318308662351,0.6116469049586658,0.6127339523350789,0.6356984210615386,0.6882065613416105,0.7682175332116266,0.8625772322516142,0.9486001936546526,0.9999588364694096,0.9936955133698833,0.917203235557018,0.7729842566121452,0.5783549480022221,0.36271895555434697,0.15997011942021286,0.0,0.0,0.0,0.0,0.0,0.0,0.0,0.0,0.0,0.0,0.0,0.0,0.0,0.0,0.0,0.0,0.0,0.0,0.0,0.0,0.0,0.0,0.0,0.0,0.0,0.0,0.0,0.0,0.0,0.0,0.0,0.0,0.0,0.0,0.0,0.0,0.0,0.0,0.0,0.0,0.0,0.0,0.0,0.0,0.0,0.0,0.0,0.0,0.0,0.0,0.0,0.0,0.0,0.0,0.0,0.0,0.0,0.0,0.0,0.0,0.0,0.0,0.0,0.0,0.0,0.0,0.0,0.0,0.0,0.0,0.0,0.0,0.0,0.0,0.0,0.0,0.0,0.0,0.0,0.0,0.0,0.0,0.0,0.0,0.0,0.0,0.0,0.0,0.0,0.0,0.0,0.0,0.0,0.0,0.0,0.0,0.0,0.0,0.0,0.0,0.0,0.0,0.0,0.0,0.0,0.0,0.0,0.0,0.0,0.0,0.0,0.0,0.0,0.0,0.0
0.917203235557018,1.0031613780844686,1.025298941250948,0.9967012276867078,0.9397038444325216,0.8787403787940167,0.8332218310264834,0.8126078475573221,0.814996323817611,0.8293454319114505,0.8402775220310154,0.8336836699293833,0.801263562055168,0.7426737343015558,0.6648815942199653,0.5792835140792496,0.4978118288375909,0.429431166340126,0.37810410550778245,0.34265945834752354,0.3182895061274838,0.2988915189879261,0.2793085945387865,0.256723798192857,0.23089635493363406,0.20340563002058484,0.17640500227712272,0.15147870039023031,0.1290430790615338,0.1084349036729621,0.0885217539136858,0.06847630978631757,0.04833778594520295,0.029123224641686977,0.012471086077630608,0.0,0.0,0.0,0.0,0.0,0.0,0.0,0.0,0.0,0.0,0.0,0.0,0.0,0.0,0.0,0.0,0.0,0.0,0.0,0.0,0.0,0.0,0.0,0.0,0.0,0.0,0.0,0.0,0.0,0.0,0.0,0.0,0.0,0.0,0.0,0.0,0.0,0.0,0.0,0.0,0.0,0.0,0.0,0.0,0.0,0.0,0.0,0.0,0.0,0.0,0.0,0.0,0.0,0.0,0.0,0.0,0.0,0.0,0.0,0.0,0.0,0.0,0.0,0.0,0.0,0.0,0.0,0.0,0.0,0.0,0.0,0.0,0.0,0.0,0.0,0.0,0.0,0.0,0.0,0.0,0.0,0.0,0.0,0.0,0.0,0.0,0.0,0.0,0.0,0.0,0.0,0.0,0.0,0.0,0.0,0.0,0.0,0.0,0.0,0.0,0.0,0.0,0.0,0.0,0.0,0.0,0.0,0.0,0.0,0.0,0.0,0.0,0.0,0.0,0.0,0.0,0.0,0.0,0.0,0.0,0.0,0.0,0.0,0.0,0.0,0.0,0.0,0.0,0.0,0.0,0.0,0.0,0.0,0.0,0.0,0.0,0.0,0.0,0.0,0.0,0.0,0.0,0.0,0.0,0.0,0.0,0.0,0.0,0.0,0.0,0.0,0.0,0.0,0.0,0.0,0.0,0.0,0.0,0.0,0.0,0.0,0.0,0.0,0.0,0.0,0.0,0.0,0.0,0.0,0.0,0.0,0.0,0.0,0.0,0.0,0.0,0.0,0.0,0.0,0.0,0.0,0.0,0.0,0.0,0.0,0.0,0.0,0.0,0.0,0.0,0.0,0.0,0.0,0.0,0.0,0.0,0.0,0.0,0.0,0.0,0.0,0.0,0.0,0.0,0.0,0.0,0.0,0.0,0.0,0.0,0.0,0.0,0.0,0.0,0.0,0.0,0.0,0.0,0.0,0.0,0.0,0.0,0.0,0.0,0.0,0.0,0.0,0.0,0.0,0.0,0.0,0.0,0.0,0.0,0.0,0.0,0.0,0.0,0.0,0.0,0.0,0.0,0.0,0.0,0.0,0.0,0.0,0.0,0.0,0.0,0.0,0.0,0.0,0.0,0.0,0.0,0.0,0.0,0.0,0.0,0.0,0.0,0.0,0.0,0.0
0.9199948877561498,0.9994775623785107,1.0107060062778106,0.9667087098049328,0.8905268607039223,0.8080528440757725,0.7406073419525049,0.6999843296399052,0.6863413414628348,0.6900359344868121,0.6961108003953951,0.6896966760753124,0.6611005058426394,0.6081133903188713,0.5359597125463575,0.45488794941737415,0.3764012315138066,0.310203093013662,0.2615302270175486,0.2306163935484547,0.21366509843935316,0.2046328307986286,0.19793880664058822,0.18965665802023246,0.178277991098914,0.16442345163884325,0.1497256132856071,0.1364086494139263,0.12599333706566115,0.11903603736454967,0.11518180483833333,0.11326564818100762,0.11244723813088768,0.11198667841387389,0.11149009542772104,0.1108426722504449,0.10990785899666464,0.1088802340185502,0.10787941295763863,0.10703725517321647,0.10650353966255648,0.10634985224530684,0.10674531248701219,0.10771710088334717,0.1091474132389653,0.11078329285814659,0.1122681138245181,0.11339451417096531,0.11410620092215658,0.11455883537578992,0.1150630460537367,0.1154681804963815,0.11687788854161736,0.11914883351746636,0.12183573816858191,0.12441644528920248,0.12609910239193997,0.12760637165948446,0.12911082133255622,0.1309885128837452,0.13376984452466825,0.13764506861616824,0.1436779956426251,0.15183839611586528,0.16163192719959502,0.17222924414916158,0.18220458819789281,0.19134940502888506,0.19916006325274369,0.20551213194872775,0.2106886437736549,0.21472340713634003,0.21900629201774377,0.2244495003066429,0.2316587636439358,0.24067933371945197,0.2503795549873144,0.2599226754528628,0.2676572418511518,0.27177654861543166,0.270670023665249,0.26290002337127477,0.24859661362710256,0.22857681041021735,0.20451818486419512,0.1786566367068475,0.1530382899114831,0.13004167884130904,0.11111816259178689,0.09679580213477372,0.08664324974844598,0.07918967395499456,0.07312475954606744,0.0669948379187766,0.05981672721076294,0.05131852404713351,0.041646150083900796,0.03214418278562368,0.024113432088586625,0.018600071876704014,0.015993798345821014,0.015453341867541482,0.01610287076253855,0.016386975937357686,0.014861318219020186,0.01074824686587545,0.003971860807895145,-0.0033440805216443494,-0.008112176583522668,-0.0064596302920356605,0.005502695385929885,0.030337713824485295,0.06994432460460848,0.12380070339198124,0.18915548765354012,0.26128162827793905,0.3334775889054719,0.39994087897695757,0.4550770982763291,0.4947999040858437,0.5170605611699483,0.5212033394075711,0.5102491316278959,0.48825126042324,0.46008479136288977,0.4305380333241975,0.4026423644053208,0.37970395644744875,0.36280543897265827,0.35147749552458096,0.3440155054784467,0.3371276043900151,0.32930911937814633,0.31905988086092946,0.30590977589120955,0.29047589588335926,0.27361198100352946,0.25791947451219094,0.2455750715311497,0.23829067150422523,0.23693628628827174,0.2410123632528281,0.24986634801140434,0.2620240895028673,0.2758209528757591,0.289757882095173,0.30252886802817336,0.3138752178424568,0.32394674547096436,0.33328954557789453,0.34257947790207427,0.35224260615684916,0.36258276184055216,0.3734490766966767,0.38438444297176744,0.39483546048595297,0.40443812999608103,0.413330081475497,0.4223187254006808,0.4329084909696477,0.4470914430698316,0.4669191021729338,0.4939525589953085,0.528691967746668,0.5701976588185599,0.6160252229343143,0.6624206441592807,0.7055287495744706,0.7416257971268726,0.7682727757143308,0.7849590027987969,0.7929807011719842,0.7960261050284366,0.7979149793788295,0.8019574624362401,0.8099475104838662,0.8213139120016634,0.8339206474746307,0.8435237140418376,0.845257585386616,0.8349360181689355,0.8099955274922235,0.770802977452667,0.7197476103478961,0.6609658265939363,0.5993720487390055,0.5394401339592236,0.4849060121481221,0.43755653997327754,0.39753991188445553,0.3638080793090755,0.3346132764324518,0.30854270456634186,0.284259207229518,0.2608305048043488,0.2376464881036749,0.21410121324697443,0.19004231071685862,0.1650334594137408,0.138800039642436,0.11148489689827434,0.08365730313389269,0.056991062647549176,0.033156700601983974,0.01377231391940658,0.0,0.0,0.0,0.0,0.0,0.0,0.0,0.0,0.0,0.0,0.0,0.0,0.0,0.0,0.0,0.0,0.0,0.0,0.0,0.0,0.0,0.0,0.0,0.0,0.0,0.0,0.0,0.0,0.0,0.0,0.0,0.0,0.0,0.0,0.0,0.0,0.0,0.0,0.0,0.0,0.0,0.0,0.0,0.0,0.0,0.0,0.0,0.0,0.0,0.0,0.0,0.0,0.0,0.0,0.0,0.0,0.0,0.0,0.0,0.0,0.0,0.0,0.0,0.0,0.0,0.0,0.0,0.0,0.0,0.0,0.0,0.0,0.0,0.0,0.0,0.0,0.0,0.0,0.0,0.0,0.0,0.0,0.0,0.0,0.0,0.0,0.0,0.0,0.0,0.0,0.0,0.0,0.0,0.0,0.0
0.8349360181689355,0.894255449179697,0.8840603793324862,0.8161651469296511,0.7126546368946458,0.5993720487390055,0.4989091385037888,0.42574622155708136,0.38369422172224804,0.3669777970702445,0.3638080793090755,0.3609780482716183,0.3485241768381356,0.32203517131746023,0.283089116010175,0.23764648810367492,0.19314854099618686,0.1563021261403449,0.130780932385138,0.11674221827890574,0.11148489689827433,0.11065473774452449,0.11052631623873879,0.10862765647155699,0.10427681651272336,0.09826473302505591,0.09188174487546247,0.08678136537758258,0.08391877454969146,0.08348505137886929,0.08504456915183746,0.0876433116078394,0.0907688329061935,0.09406004561219902,0.09742359080050607,0.10089400704668411,0.10432842545004076,0.10774308273064663,0.11100857836325341,0.11401241510313558,0.11674344494153077,0.11925179471327936,0.12182218022470996,0.12470820976382795,0.12805449889892345,0.13181729079642424,0.1357279303507207,0.13946782315317352,0.1427042254418372,0.1452069741353542,0.1468911366513177,0.14737058416910473,0.14753323631622844,0.14733768566323355,0.1466451777328586,0.14537475691781418,0.14331094459378232,0.1414625142557964,0.1404384191308687,0.14097616443480132,0.14385837718431066,0.14951350620113496,0.15874939028786145,0.17149813037983216,0.18711768555417016,0.20444343018648165,0.2219812046774507,0.23816092349086032,0.25138044955135364,0.2604798378227197,0.26502848318865263,0.26576655509386643,0.2636021490510011,0.2598838153535844,0.2559335291324127,0.2527180025763957,0.2506703146606524,0.24950200054218105,0.2482730475171952,0.24568068662013937,0.24040752196413884,0.23124936404240534,0.21805462820324964,0.20121661914838843,0.18177006793761977,0.16115749665333184,0.14065440730781453,0.12184923267319876,0.10567088452117963,0.09245030665384156,0.08190747134252485,0.07297616180568023,0.06494343445620222,0.05688492440327643,0.048134614268736456,0.038437786601993484,0.027650001079786313,0.016795124457410663,0.0069468582287498595,-0.0006948841399387208,-0.0050318981385378886,-0.00568019425092931,-0.0018173407433887362,0.0065948450413646055,0.01906826512932157,0.03452012636550725,0.050676358734645634,0.06568962200494186,0.07676656447946648,0.08068528705454761,0.0740721508695524,0.05321966039182265,0.01673124024801916,-0.03547763739851873,-0.10122345744333729,-0.1759091521224986,-0.25364905917230324,-0.32551392742464424,-0.3828318622793639,-0.4180083433282605,-0.4258904551145496,-0.40573947744287775,-0.3585473097750696,-0.28930238483208603,-0.20538556893773383,-0.11534088323636757,-0.028451126575842527,0.04923140528567069,0.1132786154541787,0.1618046412368404,0.19520868864181445,0.21474896749447325,0.22434705088924609,0.2276727998086703,0.22814241847621017,0.22847818507239312,0.22995361494343147,0.23399523798720473,0.24088872529303226,0.2503556811494859,0.2617476815029718,0.2740026616716203,0.2865207663474158,0.2986704385513416,0.3100642057307421,0.3206178139921497,0.33042232536054356,0.3402133877811384,0.35091667667643156,0.3636404398848821,0.3794879464813276,0.3992391865151994,0.423346868806733,0.45157102314845604,0.48294858391139733,0.5158961756508303,0.5484933864502619,0.5790097290663474,0.6063254086855406,0.6303750035833328,0.6523044048203331,0.6742290117431099,0.6988132258672549,0.7282687242482911,0.763596775136327,0.804005135673581,0.8468715370661539,0.8878226179325963,0.9221003684870491,0.9455526310230508,0.955705866526829,0.952660943697385,0.9383050226201719,0.9167905321079597,0.8929612939446409,0.8709547326208728,0.8530795573304898,0.8389689604855955,0.8259925680270366,0.8099342034278769,0.7862035987149166,0.7510266775639156,0.7028460899076562,0.6423034225854439,0.5723096943254642,0.4974189182899802,0.4227674781392309,0.3535326737217237,0.293541067116986,0.2450393790753367,0.20863423786504373,0.18338202457252045,0.16768383425017364,0.15901867667099798,0.15457397707328888,0.1515790435289556,0.14740892174971187,0.14044258280932456,0.12942720688518572,0.1139478836424703,0.09452384919286747,0.07235262981532489,0.04981340417267057,0.029085596294253443,0.012065679149794305,0.0,0.0,0.0,0.0,0.0,0.0,0.0,0.0,0.0,0.0,0.0,0.0,0.0,0.0,0.0,0.0,0.0,0.0,0.0,0.0,0.0,0.0,0.0,0.0,0.0,0.0,0.0,0.0,0.0,0.0,0.0,0.0,0.0,0.0,0.0,0.0,0.0,0.0,0.0,0.0,0.0,0.0,0.0,0.0,0.0,0.0,0.0,0.0,0.0,0.0,0.0,0.0,0.0,0.0,0.0,0.0,0.0,0.0,0.0,0.0,0.0,0.0,0.0,0.0,0.0,0.0,0.0,0.0,0.0,0.0,0.0,0.0,0.0,0.0,0.0,0.0,0.0,0.0,0.0,0.0,0.0,0.0,0.0,0.0,0.0,0.0,0.0,0.0,0.0,0.0,0.0,0.0,0.0,0.0,0.0
0.955705866526829,1.0411156142825062,1.0574284488677061,1.0182535712802478,0.9473082878413226,0.8709547326208728,0.8105144990464371,0.7772457187423363,0.7702708414555378,0.7786521831892297,0.7862035987149166,0.7771946385550004,0.741750536151273,0.6781770206631454,0.5928217472858742,0.49741891828998025,0.40502320167269906,0.3265920570229697,0.26815380252245635,0.23018344931605175,0.20863423786504373,0.1969457661709024,0.1887534466057284,0.17942175607292027,0.16691388514591973,0.1515790435289556,0.1350671881161575,0.11977135694323547,0.10750520119738044,0.09912961978981573,0.09452384919286747,0.09262124257785392,0.0925610540620654,0.09345225314007695,0.09466668528461374,0.09582814101589807,0.09651110979172547,0.09681780986754847,0.09686035192662569,0.09686551364955087,0.09713243283892864,0.09776814463447364,0.09912613319099108,0.10129244827261631,0.1041276887295957,0.10728453121714637,0.11022313177872242,0.11265291910116573,0.11447706853710297,0.11591241172211068,0.11743662959536408,0.11913827780794725,0.12241300889150696,0.12732387627535258,0.13350065055999982,0.14030635981055056,0.14659267045163457,0.15256151784431973,0.15761563957058736,0.16125703061149502,0.1631760900257371,0.1628870433031592,0.1612106194123621,0.15822973372718052,0.154052682735873,0.1489286877272399,0.14295463217341597,0.1375069687602953,0.1335990879279205,0.1323185882806809,0.13468128542874272,0.1410442704147289,0.15218525352464776,0.16795037174900213,0.18752105095912583,0.20943168937957393,0.2316023992597192,0.25199354706351157,0.26849959777944715,0.2794977193679379,0.2841820933304051,0.28291844716478476,0.2767061066767341,0.26719050775434844,0.2562402286151919,0.2455294370144409,0.23615205223061891,0.22848440300662462,0.22196039814380553,0.21530632721523263,0.20687678069847673,0.19486533091583885,0.17841333412210944,0.15729768801945224,0.13224007470506718,0.1048135511213661,0.07687462822398522,0.05101049114395102,0.029294358133036925,0.013086015563650303,0.002750321544255435,-0.0027457737650846375,-0.004602972077278917,-0.004733920680227836,-0.005010342160398534,-0.006774386857974365,-0.010862076765280403,-0.01613554697093654,-0.020657912161680964,-0.021703593081314938,-0.016299095260204163,-0.0023415657213748426,0.02228543019362574,0.05792404616860756,0.10322459528804775,0.1550899310750612,0.2082800089774088,0.2576895187602867,0.29741301182964724,0.3218650899939207,0.32647895741032656,0.3076500406942429,0.26546009963661027,0.20220371263436718,0.12283089162241408,0.03448918698957816,-0.05517991074661046,-0.1364471552743238,-0.20098786221606604,-0.2424671262494106,-0.2575005834311702,-0.24717343303301104,-0.21371868069291403,-0.1625733614061229,-0.10059258785550065,-0.03490569986776687,0.027247111873068497,0.08203336985754484,0.1270546545162462,0.16190284613419545,0.18768918369563647,0.20564940579372326,0.21877877875830995,0.22936853566115573,0.23921405639036072,0.2494616915092627,0.26017119214715384,0.27182765705670375,0.28435346758342367,0.2975630956090215,0.3112341993228889,0.32496326172348067,0.33864108183698777,0.35208015706559226,0.36511821825323193,0.37766031458701493,0.38976012526238607,0.40170108126837895,0.4140868311851342,0.42783811199290445,0.4440864298511409,0.46395566638409186,0.48821556115216025,0.5170022774269168,0.5495850004836392,0.5843606827959767,0.6190460885522396,0.651511591693173,0.6800427920699539,0.7040963066053518,0.7246349357408125,0.7438384215469481,0.7651319206388641,0.7913610997261321,0.8240529417774914,0.8626427261611245,0.9042179000682676,0.9440243971103937,0.9764306354406131,0.9963625452176574,1.0006505165814363,0.9890324522377608,0.9637487578651392,0.9294875430398183,0.8917867222053172,0.8554572465822471,0.8233132909929022,0.7954979666323224,0.7698113566641112,0.7426359254278101,0.7102639765830581,0.6700466662365785,0.6215302366586608,0.5660463726840761,0.5063273322979176,0.4455654120642426,0.3863191756096973,0.3303633402123121,0.2779284817444313,0.2283589382481711,0.18086684754542717,0.13511284414469815,0.09224389917803164,0.054028460203928326,0.022654928751420857,0.0,0.0,0.0,0.0,0.0,0.0,0.0,0.0,0.0,0.0,0.0,0.0,0.0,0.0,0.0,0.0,0.0,0.0,0.0,0.0,0.0,0.0,0.0,0.0,0.0,0.0,0.0,0.0,0.0,0.0,0.0,0.0,0.0,0.0,0.0,0.0,0.0,0.0,0.0,0.0,0.0,0.0,0.0,0.0,0.0,0.0,0.0,0.0,0.0,0.0,0.0,0.0,0.0,0.0,0.0,0.0,0.0,0.0,0.0,0.0,0.0,0.0,0.0,0.0,0.0,0.0,0.0,0.0,0.0,0.0,0.0,0.0,0.0,0.0,0.0,0.0,0.0,0.0,0.0,0.0,0.0,0.0,0.0,0.0,0.0,0.0,0.0,0.0,0.0,0.0,0.0,0.0,0.0,0.0,0.0
1.0006505165814363,1.0844517001955283,1.0927718100598032,1.0399367946277325,0.9513113820516084,0.8554572465822471,0.7761145595586644,0.7263946474707582,0.7067170609294939,0.7067394478876482,0.7102639765830581,0.7012742645628539,0.6690995039218594,0.6112088782726584,0.533076303984296,0.44556541206424266,0.3610212739497981,0.28950359900410966,0.23633393227056101,0.20151426227741812,0.18086684754542717,0.168202953528044,0.15761473263768816,0.14512158423936602,0.1292821058466288,0.11082577216001387,0.09169116205252482,0.07397669978469729,0.059211293873363526,0.04811697462596848,0.04078469677460054,0.03702435280714688,0.036631658506865616,0.039420681992508505,0.045033121448750546,0.05267073443829189,0.06094498993899799,0.06798355036081366,0.07180929650881121,0.07087513042993819,0.06455677210198323,0.05340983548276488,0.0390819156795985,0.02389743332461435,0.010250056374741846,0.0,0.0,0.0,0.0,0.0,0.0,0.0,0.0,0.0,0.0,0.0,0.0,0.0,0.0,0.0,0.0,0.0,0.0,0.0,0.0,0.0,0.0,0.0,0.0,0.0,0.0,0.0,0.0,0.0,0.0,0.0,0.0,0.0,0.0,0.0,0.0,0.0,0.0,0.0,0.0,0.0,0.0,0.0,0.0,0.0,0.0,0.0,0.0,0.0,0.0,0.0,0.0,0.0,0.0,0.0,0.0,0.0,0.0,0.0,0.0,0.0,0.0,0.0,0.0,0.0,0.0,0.0,0.0,0.0,0.0,0.0,0.0,0.0,0.0,0.0,0.0,0.0,0.0,0.0,0.0,0.0,0.0,0.0,0.0,0.0,0.0,0.0,0.0,0.0,0.0,0.0,0.0,0.0,0.0,0.0,0.0,0.0,0.0,0.0,0.0,0.0,0.0,0.0,0.0,0.0,0.0,0.0,0.0,0.0,0.0,0.0,0.0,0.0,0.0,0.0,0.0,0.0,0.0,0.0,0.0,0.0,0.0,0.0,0.0,0.0,0.0,0.0,0.0,0.0,0.0,0.0,0.0,0.0,0.0,0.0,0.0,0.0,0.0,0.0,0.0,0.0,0.0,0.0,0.0,0.0,0.0,0.0,0.0,0.0,0.0,0.0,0.0,0.0,0.0,0.0,0.0,0.0,0.0,0.0,0.0,0.0,0.0,0.0,0.0,0.0,0.0,0.0,0.0,0.0,0.0,0.0,0.0,0.0,0.0,0.0,0.0,0.0,0.0,0.0,0.0,0.0,0.0,0.0,0.0,0.0,0.0,0.0,0.0,0.0,0.0,0.0,0.0,0.0,0.0,0.0,0.0,0.0,0.0,0.0,0.0,0.0,0.0,0.0,0.0,0.0,0.0,0.0,0.0,0.0,0.0,0.0,0.0,0.0,0.0,0.0,0.0,0.0,0.0,0.0,0.0,0.0,0.0,0.0,0.0,0.0,0.0,0.0,0.0,0.0,0.0,0.0,0.0,0.0,0.0,0.0,0.0,0.0,0.0,0.0,0.0,0.0,0.0,0.0,0.0,0.0,0.0,0.0,0.0,0.0,0.0,0.0,0.0,0.0,0.0,0.0
1.0006505165814363,1.07741837416422,1.0737644551742982,1.0036126272966235,0.8927943555753368,0.7713296687636239,0.6651009200465975,0.590447671448083,0.5511091251366133,0.5396939439603313,0.5420088209458115,0.5424120093996361,0.5296335809246097,0.4991255088172811,0.4534729302264473,0.4003130202413424,0.34870833744586455,0.3066593231344695,0.27829586345622914,0.26345739875236834,0.2586172195368733,0.25842987877059065,0.25850726928470125,0.2561321593586052,0.2508059373484599,0.24374395066258436,0.23666836213356535,0.2313704693767559,0.22861547301381763,0.2281208069130589,0.22887068178829548,0.2295412069008061,0.2293277600369924,0.22795296739269125,0.22569282889897896,0.22312544395069156,0.220743656443488,0.21896674396215648,0.2178969551935938,0.21742998881413497,0.21738020611308764,0.21753902541888281,0.21784420863230566,0.21824486817871175,0.21866909113010885,0.21899894401515624,0.2190699405716425,0.21890872994302654,0.2187434355579039,0.21907596975601834,0.22061768191722483,0.22355503156499706,0.22942367280673084,0.23821124108204886,0.24928377737627316,0.26155042950159024,0.27331979046608446,0.2841015245034638,0.2928632974556615,0.29899366410926,0.30248317708595573,0.3036600166167978,0.304092848012646,0.30488227929612827,0.3068475550378667,0.3102823523683662,0.314610356625828,0.31918695262688546,0.3224400759666451,0.3225892819628619,0.3180815276507768,0.3078462400324167,0.2920456741338659,0.2714421467632477,0.2474936740264878,0.2220732467914114,0.19698636922400947,0.17410817182776506,0.1545024062185672,0.13855918800853745,0.12606496593204605,0.11625466219424783,0.10847389837695202,0.10178672238322532,0.09536437424936806,0.08861955480006446,0.08116473997679724,0.07327025932000711,0.06525968444176286,0.057669421100041085,0.05117414366808285,0.04635160069253595,0.04394686172480606,0.04413551372128814,0.04660920866324235,0.05056197393763188,0.05467842901832805,0.057778748827350235,0.05854192931130343,0.05602960411754428,0.0499498042071809,0.040656401958740915,0.029504759472153023,0.018023871902663635,0.007773628533492923,0.0,0.0,0.0,0.0,0.0,0.0,0.0,0.0,0.0,0.0,0.0,0.0,0.0,0.0,0.0,0.0,0.0,0.0,0.0,0.0,0.0,0.0,0.0,0.0,0.0,0.0,0.0,0.0,0.0,0.0,0.0,0.0,0.0,0.0,0.0,0.0,0.0,0.0,0.0,0.0,0.0,0.0,0.0,0.0,0.0,0.0,0.0,0.0,0.0,0.0,0.0,0.0,0.0,0.0,0.0,0.0,0.0,0.0,0.0,0.0,0.0,0.0,0.0,0.0,0.0,0.0,0.0,0.0,0.0,0.0,0.0,0.0,0.0,0.0,0.0,0.0,0.0,0.0,0.0,0.0,0.0,0.0,0.0,0.0,0.0,0.0,0.0,0.0,0.0,0.0,0.0,0.0,0.0,0.0,0.0,0.0,0.0,0.0,0.0,0.0,0.0,0.0,0.0,0.0,0.0,0.0,0.0,0.0,0.0,0.0,0.0,0.0,0.0,0.0,0.0,0.0,0.0,0.0,0.0,0.0,0.0,0.0,0.0,0.0,0.0,0.0,0.0,0.0,0.0,0.0,0.0,0.0,0.0,0.0,0.0,0.0,0.0,0.0,0.0,0.0,0.0,0.0,0.0,0.0,0.0,0.0,0.0,0.0,0.0,0.0,0.0,0.0,0.0,0.0,0.0,0.0,0.0,0.0,0.0,0.0,0.0,0.0,0.0,0.0,0.0,0.0,0.0,0.0,0.0,0.0,0.0,0.0,0.0,0.0,0.0,0.0,0.0,0.0,0.0,0.0,0.0,0.0,0.0,0.0,0.0,0.0,0.0,0.0,0.0,0.0,0.0,0.0,0.0,0.0,0.0
0.8582136380010881,0.9214091297932084,0.9134792455681309,0.8461462189289077,0.7417813337887191,0.6268229622711936,0.5240812109287916,0.44934225939872596,0.4073999126986646,0.39324118482326886,0.3954322865412992,0.4000336669091218,0.39702928785476266,0.3814467872989189,0.35424937965584524,0.3208179255521925,0.2877716270355172,0.26176762323953073,0.24645019466046966,0.24209956630170917,0.2462035645630858,0.2544985747812674,0.2634332288216593,0.2705906013990615,0.2752780540820583,0.2782412334308049,0.2807719250974361,0.2845133562784733,0.2905150555747211,0.29916003207749725,0.310278902298524,0.3233444039946853,0.3378854558002697,0.3534531805187789,0.36963266936134176,0.3859789065777734,0.4019714964654398,0.41728473661172794,0.43189964815723875,0.4463315603598735,0.4616789108570228,0.4793987492687411,0.5009871375955867,0.5273606287333906,0.5583990277313821,0.5927257343907666,0.6278287879786404,0.6607155356132991,0.6885996994939926,0.7097007964743021,0.7237725579245103,0.7317139349770466,0.7370076158771798,0.7426225354697115,0.7509477563107355,0.7630358658434053,0.7778192880260208,0.7933286313123757,0.8055377150445145,0.8098621962217801,0.8022991737623003,0.7802497576340799,0.7439398242707865,0.6954908003372395,0.6388561251743916,0.5789874304040665,0.5206287702038274,0.4679667622630229,0.42311597785475863,0.38620839597426293,0.35567568704583286,0.3287644407189054,0.3028335137130578,0.27548998788529655,0.2453978858153524,0.2125520147447184,0.17805655040518525,0.1442979314417171,0.11366951418458375,0.08826456907192065,0.06942834244360396,0.05733789107470892,0.05158218726841788,0.050550320721737395,0.052110178645048466,0.054104067107748836,0.05461674206978396,0.053071647010698594,0.04936817398002669,0.044189388614711035,0.03877979177189371,0.03434329048496994,0.03253739138601867,0.0339188913900845,0.03820529222457342,0.04434066590814646,0.050441253168731326,0.05533678089804783,0.057443009657227005,0.055708599502713264,0.04990154004439922,0.040303557117635405,0.028973759677940136,0.017537067224058296,0.007504950479720713,0.0,0.0,0.0,0.0,0.0,0.0,0.0,0.0,0.0,0.0,0.0,0.0,0.0,0.0,0.0,0.0,0.0,0.0,0.0,0.0,0.0,0.0,0.0,0.0,0.0,0.0,0.0,0.0,0.0,0.0,0.0,0.0,0.0,0.0,0.0,0.0,0.0,0.0,0.0,0.0,0.0,0.0,0.0,0.0,0.0,0.0,0.0,0.0,0.0,0.0,0.0,0.0,0.0,0.0,0.0,0.0,0.0,0.0,0.0,0.0,0.0,0.0,0.0,0.0,0.0,0.0,0.0,0.0,0.0,0.0,0.0,0.0,0.0,0.0,0.0,0.0,0.0,0.0,0.0,0.0,0.0,0.0,0.0,0.0,0.0,0.0,0.0,0.0,0.0,0.0,0.0,0.0,0.0,0.0,0.0,0.0,0.0,0.0,0.0,0.0,0.0,0.0,0.0,0.0,0.0,0.0,0.0,0.0,0.0,0.0,0.0,0.0,0.0,0.0,0.0,0.0,0.0,0.0,0.0,0.0,0.0,0.0,0.0,0.0,0.0,0.0,0.0,0.0,0.0,0.0,0.0,0.0,0.0,0.0,0.0,0.0,0.0,0.0,0.0,0.0,0.0,0.0,0.0,0.0,0.0,0.0,0.0,0.0,0.0,0.0,0.0,0.0,0.0,0.0,0.0,0.0,0.0,0.0,0.0,0.0,0.0,0.0,0.0,0.0,0.0,0.0,0.0,0.0,0.0,0.0,0.0,0.0,0.0,0.0,0.0,0.0,0.0,0.0,0.0,0.0,0.0,0.0,0.0,0.0,0.0,0.0,0.0,0.0,0.0,0.0,0.0,0.0,0.0,0.0,0.0
