0.7358473610259796,0.810470092461557,0.8345700116609506,0.8173437449200105,0.7756429612858021,0.7286537083754754,0.6918467280838517,0.6748665697188562,0.6787701631850559,0.6975886023703197,0.7214600557249712,0.7398139235038993,0.7465651451731157,0.7402963221785452,0.7243178867624431,0.7047665151203317,0.6872334110908982,0.6767654583099127,0.6748614567934876,0.6798813773108486,0.6880729745156922,0.6942671643663328,0.6960302497010529,0.6925570454793992,0.685132799623297,0.6763061712642737,0.6680297213421074,0.662659608523814,0.6608649691844144,0.6620006269601817,0.6645393680128553,0.6662518359556131,0.6662459256219907,0.6642329303032628,0.6607487215298501,0.6567926499763873,0.6528957875313326,0.6500918064892748,0.648692168098248,0.64852449229947,0.6490459319399196,0.6490946287896966,0.6483793637733113,0.6466358765936313,0.6438990962993947,0.6404488977996625,0.636318988903516,0.6324800314032143,0.62984087972787,0.6293600032006387,0.6318518636594055,0.6369905266775902,0.6457715088041363,0.6576306692874496,0.671444583821569,0.685795243318864,0.6985897878755223,0.7099696205883381,0.7199097331403262,0.7292687209926247,0.7397386229783224,0.7528107928429759,0.7716250197440301,0.7976763249770054,0.8310750915690355,0.8701945697798794,0.9109903644644228,0.9496305842925161,0.9807134915513581,0.9990457985494153,1.0006505165814363,0.9829543903129552,0.9473290471462217,0.8966704451791264,0.8357078696580578,0.7702213981048094,0.7054955109810499,0.6474658572576615,0.59971106376622,0.5638870271738032,0.5397922796281822,0.5251579757385051,0.518206048503544,0.5160083150055115,0.5158077653096429,0.515461485098418,0.5130762229286828,0.5090470071804551,0.5036221988702577,0.49740927655714007,0.49113069056865377,0.4848033084960224,0.4796479349279017,0.4757418515822736,0.47281530536136596,0.4703853811807985,0.46729097175388046,0.4639125975361768,0.45994949413722874,0.45521251309916094,0.4496400717929432,0.4426474809948561,0.435211993022495,0.42751750436082886,0.41969906451376904,0.41186620750095704,0.40345492668985156,0.39546995022804327,0.38798443731538235,0.3809265638048782,0.3740923432089709,0.3664806066984655,0.35872637634379373,0.3505637727006984,0.3418067253271375,0.33247309172103684,0.3220840214600469,0.31222680968914085,0.3034901371844529,0.29630549257209154,0.29085384023310273,0.28620041297083754,0.28314372859784454,0.2810578838970569,0.2791956030651329,0.27695781842984546,0.2733979167959958,0.269673945023433,0.2663110324426691,0.2639268330196419,0.2630617966265882,0.263441184102913,0.26581011889144784,0.2698550600522463,0.2749657055376154,0.28041220299057384,0.28497640757301673,0.2889655179512222,0.2922945036210841,0.2951182548115785,0.2977626093545596,0.30006727048617693,0.3030501703557136,0.30689641486009467,0.3115332870416582,0.316669352799913,0.3213562171936307,0.32583908930483446,0.32980805757586223,0.33306648466869765,0.33557609624526635,0.336940339523695,0.33804679622039446,0.33920163542604237,0.340623070656183,0.3423919259212745,0.34394783917446375,0.3456929454508978,0.3473652941275576,0.34863844220088597,0.3492077555972826,0.3484102481900021,0.34676013940061906,0.3444039371557778,0.3415829267427243,0.33858773969153266,0.33527542454099385,0.3324100872739853,0.33019799501340535,0.3287241297650724,0.32796772378578265,0.3274318407490762,0.32746736036304225,0.32798577951592717,0.32887198309199844,0.32998367739134016,0.3309999552325686,0.3319680983437349,0.332613074870572,0.33267243173468575,0.33199963099689767,0.33049813462972183,0.3286412604981418,0.3267166750960456,0.3249677680766203,0.3235042448997773,0.32211053026279424,0.32082719955342986,0.3193342952217554,0.31739079287790334,0.31500885880265694,0.3123692377428496,0.31032355757190383,0.3094019556272865,0.30983783107595,0.3113953467300859,0.313191103564175,0.3145052987379461,0.3143157879268632,0.3120226189888118,0.3077818346575149,0.30239086792178543,0.2976664538337065,0.2950214656881971,0.2951756361402981,0.29775308043275184,0.3010837741505595,0.3033145762009743,0.302320630250076,0.2969503854189743,0.2877243262079888,0.2767837099619777,0.26799412252651555,0.2648581653029911,0.26944601950117797,0.2812743596799393,0.2967082575309513,0.3101535446168029,0.3146020650668695,0.3039261655234814,0.27482439315188983,0.2279167958865659,0.1685339684400342,0.10479341660126787,0.045930167693737645,0.0,0.0,0.0,0.0,0.0,0.0,0.0,0.0,0.0,0.0,0.0,0.0,0.0,0.0,0.0,0.0,0.0,0.0,0.0,0.0,0.0,0.0,0.0,0.0,0.0,0.0,0.0,0.0,0.0,0.0,0.0,0.0,0.0,0.0,0.0,0.0,0.0,0.0,0.0,0.0,0.0,0.0,0.0,0.0,0.0,0.0,0.0,0.0,0.0,0.0,0.0,0.0,0.0,0.0,0.0,0.0,0.0,0.0,0.0,0.0,0.0,0.0,0.0,0.0,0.0,0.0,0.0,0.0,0.0,0.0,0.0,0.0,0.0,0.0,0.0
1.0006505165814363,1.0786689263510494,1.0759877995157192,1.0059822041981954,0.8940772178741596,0.7702213981048094,0.6606908120014423,0.5827741256595894,0.541611266665222,0.5314726939622038,0.5397922796281822,0.5522164081116033,0.5580073399169732,0.5522599318964924,0.5362436423159846,0.515461485098418,0.4963644474456883,0.48421851190891124,0.4808219260355885,0.4844713136303144,0.49113069056865377,0.4960262496465351,0.49617431288826225,0.490764528970338,0.481243472160086,0.4703853811807985,0.4607086809524054,0.45419190221831257,0.4510951617799447,0.45023916439578165,0.4496400717929432,0.4470481029460558,0.44152833542474434,0.43309805578656735,0.4227327443360418,0.41186620750095704,0.4014958366026948,0.39263824555552557,0.3854660820475964,0.37954923329892354,0.3740923432089709,0.3679206042022144,0.3606513113158656,0.3521286434033363,0.34257716835000596,0.33247309172103684,0.3220840214600469,0.31222680968914085,0.3034901371844529,0.29630549257209154,0.29085384023310273,0.28620041297083754,0.28314372859784454,0.2810578838970569,0.2791956030651329,0.27695781842984546,0.2733979167959958,0.269673945023433,0.2663110324426691,0.2639268330196419,0.2630617966265882,0.263441184102913,0.26581011889144784,0.2698550600522463,0.2749657055376154,0.28041220299057384,0.28497640757301673,0.2889655179512222,0.2922945036210841,0.2951182548115785,0.2977626093545596,0.30006727048617693,0.3030501703557136,0.30689641486009467,0.3115332870416582,0.316669352799913,0.3213562171936307,0.32583908930483446,0.32980805757586223,0.33306648466869765,0.33557609624526635,0.336940339523695,0.33804679622039446,0.33920163542604237,0.340623070656183,0.3423919259212745,0.34394783917446375,0.3456929454508978,0.3473652941275576,0.34863844220088597,0.3492077555972826,0.3484102481900021,0.34676013940061906,0.3444039371557778,0.3415829267427243,0.33858773969153266,0.33527542454099385,0.3324100872739853,0.33019799501340535,0.3287241297650724,0.32796772378578265,0.3274318407490762,0.32746736036304225,0.32798577951592717,0.32887198309199844,0.32998367739134016,0.3307624995256237,0.3314857946977252,0.33201979700180184,0.33222861484608773,0.33199963099689767,0.33089290396329035,0.32935704252705317,0.3275151378058565,0.32551599996950353,0.3235042448997773,0.32121156001013135,0.31916964393337627,0.3174540538482979,0.3160780915824703,0.31500885880265694,0.31379851652124235,0.3128584441043741,0.3121744488981813,0.3117083327655439,0.3113953467300859,0.31077034272947296,0.3101930269045734,0.3095742906555471,0.3088040603577305,0.3077818346575149,0.3060861899332454,0.30417402464982213,0.30210361669610436,0.2999401700179726,0.29775308043275184,0.29524678375537244,0.2929575696916841,0.29094500069603957,0.2892125777517481,0.2877243262079888,0.28605404651677463,0.2846258547542332,0.28339923144959717,0.2823069026351803,0.2812743596799393,0.2798663015119635,0.27852057347843223,0.2772397399146151,0.2760131203798662,0.27482439315188983,0.2732852277181743,0.27185766120624366,0.27055343674961574,0.26934923198405175,0.268199802728241,0.2666821725800952,0.26524002141874115,0.2638921076933259,0.2626591185372388,0.26157521230459224,0.26031561231803374,0.25941975104148957,0.2589591373208309,0.2589330749886245,0.2592561514352373,0.25939504321705104,0.2595549668059463,0.2594369643171052,0.25868227560054186,0.2569370905658824,0.25358302094995894,0.24893134488996554,0.24305493472661632,0.23619738125059028,0.22876637209171663,0.2211237140672846,0.21411932830710798,0.20819849676441432,0.203647303439305,0.2005956536175509,0.1988764913729277,0.19865049217174982,0.19962199673575842,0.20136384924707798,0.20338614702867666,0.20506196528768658,0.20630128231991796,0.2068664353088552,0.2067391264530318,0.2061766404398024,0.20552860520027638,0.20566684741552516,0.20703275498708953,0.2097198384421298,0.21338757320066434,0.21716556911322066,0.22040529290216845,0.22225501736925007,0.22225865621616014,0.22059850596152622,0.21797136037120934,0.2158833200324635,0.21549013605740552,0.21737990777931712,0.221261317921852,0.22580705565022277,0.22951294687475254,0.23060985169288017,0.2280234348526032,0.22192412988217775,0.21372573115769714,0.20620709744297347,0.20199159799613364,0.2027755788475217,0.208492034537356,0.21682870203577287,0.22406727269080462,0.22538910731166206,0.21650840367065524,0.1950599391925343,0.16138522074986295,0.11916907517209596,0.07404126159629765,0.032440037923601124,0.0,0.0,0.0,0.0,0.0,0.0,0.0,0.0,0.0,0.0,0.0,0.0,0.0,0.0,0.0,0.0,0.0,0.0,0.0,0.0,0.0,0.0,0.0,0.0,0.0,0.0,0.0,0.0,0.0,0.0,0.0,0.0,0.0,0.0,0.0,0.0,0.0,0.0,0.0,0.0,0.0,0.0,0.0,0.0,0.0,0.0,0.0,0.0,0.0,0.0,0.0,0.0,0.0,0.0,0.0,0.0,0.0,0.0,0.0,0.0,0.0,0.0,0.0,0.0,0.0,0.0,0.0,0.0,0.0,0.0,0.0,0.0,0.0,0.0,0.0
0.3492077555972826,0.3839673710188376,0.39434124965652045,0.38467659005606736,0.36301774388320396,0.33858773969153266,0.318950800872253,0.3088757371638427,0.30908703827034834,0.3169569159918589,0.32796772378578265,0.337269179633968,0.34192503580228456,0.3411445289441084,0.3362854561628304,0.32998367739134016,0.32472507111784077,0.3225115817787523,0.3237736800600294,0.3275460739411246,0.33199963099689767,0.3349758152753273,0.3353703153644135,0.332982592653842,0.32858439780889726,0.3235042448997773,0.3188371534050361,0.3156529435371645,0.31424117798169016,0.3142678911827301,0.31500885880265694,0.3154446747688816,0.31521874591095234,0.31425755070734535,0.3128394869629457,0.3113953467300859,0.3100731694819236,0.309177316145268,0.30866345340064866,0.30830153914074915,0.3077818346575149,0.3066527799072039,0.3049314210014537,0.3027193400208655,0.3002433131075454,0.29775308043275184,0.29524678375537244,0.2929575696916841,0.29094500069603957,0.2892125777517481,0.2877243262079888,0.28605404651677463,0.2846258547542332,0.28339923144959717,0.2823069026351803,0.2812743596799393,0.2798663015119635,0.27852057347843223,0.2772397399146151,0.2760131203798662,0.27482439315188983,0.2732852277181743,0.27185766120624366,0.27055343674961574,0.26934923198405175,0.268199802728241,0.2666821725800952,0.26524002141874115,0.2638921076933259,0.2626591185372388,0.26157521230459224,0.26031561231803374,0.25941975104148957,0.2589591373208309,0.2589330749886245,0.2592561514352373,0.25939504321705104,0.2595549668059463,0.2594369643171052,0.25868227560054186,0.2569370905658824,0.25358302094995894,0.24893134488996554,0.24305493472661632,0.23619738125059028,0.22876637209171663,0.22095559074777674,0.21377784782208967,0.20777844434296908,0.20333307233690376,0.2005956536175509,0.19915641980180576,0.1991581410746459,0.2001883833272714,0.20175280063651077,0.20338614702867666,0.2044311155360787,0.20513930725627344,0.20554961144929873,0.2058205860053554,0.2061766404398024,0.20653811497343585,0.20745862344541774,0.20899398478417736,0.21104402488958887,0.21338757320066434,0.2154488255764056,0.21734495037597115,0.2188877453339451,0.2199714219775022,0.22059850596152622,0.22058696851587575,0.22048855184917202,0.22050090068207373,0.22075014609999713,0.221261317921852,0.22166180015963374,0.2221547117403397,0.22252486839238808,0.22252206552640322,0.22192412988217775,0.22029888412895993,0.21799723305647992,0.21513216340876917,0.21188823953017968,0.208492034537356,0.20489535922938168,0.2016578987716862,0.1989257019462016,0.19674116572527578,0.1950599391925343,0.1935160842567941,0.19233668666117296,0.1914115814366055,0.19062779163652235,0.18989074512533935,0.1888921167913767,0.18790533749616128,0.18691046337893547,0.18586711700591074,0.1847215510581444,0.1832030397768998,0.18155542787262888,0.17977916002110572,0.1778895336897866,0.1759263591573924,0.17369655331490547,0.17160732479965396,0.16977685217911834,0.16828067344678843,0.1671311672566404,0.16596806634970576,0.1650353721155188,0.16423756997403466,0.1634680540383037,0.16264254008014703,0.16135126829381768,0.16006274472107546,0.1589670040519864,0.15827430475610496,0.15815391290365363,0.15823057010821223,0.158969690785007,0.1603535052322136,0.16227539701641275,0.16454884629964803,0.1666442751855,0.16860715593751038,0.17015381993330791,0.17100583854373463,0.17094377969564245,0.16975547976211505,0.16765504615050525,0.16475220424641338,0.1612528270864976,0.15745188969318352,0.15358841599084944,0.15019190854612602,0.14746698990698828,0.14544059300336132,0.14395999969072457,0.14262710770857023,0.141252489929423,0.13944684378630512,0.13692650916763932,0.13363744791273924,0.12973523513854882,0.12596518911332494,0.12309558853532554,0.12196405685822838,0.12331489613475391,0.12752986582220024,0.13485006716744938,0.1448324921782846,0.15658191364680188,0.16893888520094305,0.18066114178573187,0.19106837267292653,0.1998395328790209,0.20732901004298948,0.21456287426713216,0.22295695968258814,0.234281296253281,0.24976468903787508,0.2698086714595191,0.29367656695100447,0.3193067098934453,0.343786927411441,0.3633411053622817,0.37409566662372906,0.3727902596348768,0.3573507391493031,0.32766306607931217,0.285333831990304,0.2336851495345285,0.17729846039245134,0.12123750471847605,0.07057220790342057,0.0291977572091775,-0.000561540146066717,-0.0181933388499741,-0.02499199200985568,-0.023326047891803217,-0.01647579667224408,-0.007779589287970135,0.0,0.0,0.0,0.0,0.0,0.0,0.0,0.0,0.0,0.0,0.0,0.0,0.0,0.0,0.0,0.0,0.0,0.0,0.0,0.0,0.0,0.0,0.0,0.0,0.0,0.0,0.0,0.0,0.0,0.0,0.0,0.0,0.0,0.0,0.0,0.0,0.0,0.0,0.0,0.0,0.0,0.0,0.0,0.0,0.0,0.0,0.0,0.0,0.0,0.0,0.0,0.0,0.0,0.0,0.0,0.0,0.0,0.0,0.0,0.0,0.0,0.0,0.0,0.0,0.0,0.0,0.0,0.0,0.0,0.0,0.0,0.0,0.0,0.0,0.0
0.33199963099689767,0.3651328154467997,0.37518529955570107,0.36631568321290653,0.3461749667258842,0.3235042448997773,0.3054424830268226,0.296429985898702,0.297050121233248,0.3047015827378419,0.31500885880265694,0.3233236026937588,0.32685897935070524,0.32491878466698004,0.31888929847748715,0.3113953467300859,0.304945404206093,0.30152486267794965,0.30160037824428204,0.30427100778850796,0.3077818346575149,0.3100886825065529,0.3100613565098616,0.3074495067764907,0.3029362674081651,0.29775308043275184,0.29297049957533056,0.2895795017134094,0.28785264627578505,0.28746682482820757,0.2877243262079888,0.28767915467997385,0.2869511135053563,0.28544675902215344,0.28341599744444307,0.2812743596799393,0.2792019278405435,0.27755174326238485,0.2763700987361727,0.275532841450118,0.27482439315188983,0.27383128452917194,0.2725876095912171,0.27114684632378605,0.2696413891989272,0.268199802728241,0.2666821725800952,0.26524002141874115,0.2638921076933259,0.2626591185372388,0.26157521230459224,0.26031561231803374,0.25941975104148957,0.2589591373208309,0.2589330749886245,0.2592561514352373,0.25939504321705104,0.2595549668059463,0.2594369643171052,0.25868227560054186,0.2569370905658824,0.25358302094995894,0.24893134488996554,0.24305493472661632,0.23619738125059028,0.22876637209171663,0.22095559074777674,0.21377784782208967,0.20777844434296908,0.20333307233690376,0.2005956536175509,0.19915641980180576,0.1991581410746459,0.2001883833272714,0.20175280063651077,0.20338614702867666,0.2044311155360787,0.20513930725627344,0.20554961144929873,0.2058205860053554,0.2061766404398024,0.20653811497343585,0.20745862344541774,0.20899398478417736,0.21104402488958887,0.21338757320066434,0.2154488255764056,0.21734495037597115,0.2188877453339451,0.2199714219775022,0.22059850596152622,0.22058696851587575,0.22048855184917202,0.22050090068207373,0.22075014609999713,0.221261317921852,0.22166180015963374,0.2221547117403397,0.22252486839238808,0.22252206552640322,0.22192412988217775,0.22029888412895993,0.21799723305647992,0.21513216340876917,0.21188823953017968,0.208492034537356,0.20489535922938168,0.2016578987716862,0.1989257019462016,0.19674116572527578,0.1950599391925343,0.1935160842567941,0.19233668666117296,0.1914115814366055,0.19062779163652235,0.18989074512533935,0.1888921167913767,0.18790533749616128,0.18691046337893547,0.18586711700591074,0.1847215510581444,0.1832030397768998,0.18155542787262888,0.17977916002110572,0.1778895336897866,0.1759263591573924,0.17369655331490547,0.17160732479965396,0.16977685217911834,0.16828067344678843,0.1671311672566404,0.16596806634970576,0.1650353721155188,0.16423756997403466,0.1634680540383037,0.16264254008014703,0.16135126829381768,0.16006274472107546,0.1589670040519864,0.15827430475610496,0.15815391290365363,0.15823057010821223,0.158969690785007,0.1603535052322136,0.16227539701641275,0.16454884629964803,0.1666442751855,0.16860715593751038,0.17015381993330791,0.17100583854373463,0.17094377969564245,0.16975547976211505,0.16765504615050525,0.16475220424641338,0.1612528270864976,0.15745188969318352,0.15357208254377833,0.15015873317554573,0.1474261811481983,0.14541006495350964,0.14395999969072457,0.14262141731163253,0.1412350132795884,0.13941970447366064,0.1369028310020306,0.13363744791273924,0.1297281575955766,0.1259504932692754,0.12307708356432018,0.12194988150671593,0.12331489613475391,0.12750426316017485,0.13479608519694247,0.14476431887672406,0.1565299295036751,0.16893888520094305,0.18073635042111683,0.1912119341131621,0.20000717586689076,0.20744893969476913,0.21456287426713216,0.2227998004284615,0.23399296660784566,0.24943958164280453,0.26958327788637526,0.29367656695100447,0.31958633789227137,0.3442875075473165,0.36389251834833014,0.3744693965329304,0.3727902596348768,0.35690774545392867,0.3268892493959798,0.2845043513494776,0.2331405996550436,0.17729846039245134,0.12182609708256925,0.07152542611017625,0.030104098945008272,-8.333814507111167e-05,-0.018193338849974105,-0.024907412765465806,-0.021837833075377597,-0.011594328427023286,0.002818131701866633,0.0184481869848689,0.032707106449682354,0.04396983704318607,0.051330276648455374,0.054778343141492124,0.0550897128197119,0.053499447312665385,0.051630099410639264,0.050729697251774744,0.05148339089864585,0.05383979652125373,0.056958637138254914,0.0596856155202765,0.06056571417207525,0.05839374591997888,0.05258988022279557,0.04334351889674039,0.03183290744722198,0.0196569325705084,0.008557887927485014,0.0,0.0,0.0,0.0,0.0,0.0,0.0,0.0,0.0,0.0,0.0,0.0,0.0,0.0,0.0,0.0,0.0,0.0,0.0,0.0,0.0,0.0,0.0,0.0,0.0,0.0,0.0,0.0,0.0,0.0,0.0,0.0,0.0,0.0,0.0,0.0,0.0,0.0,0.0,0.0,0.0,0.0,0.0,0.0,0.0,0.0,0.0,0.0,0.0,0.0,0.0,0.0,0.0,0.0,0.0,0.0,0.0,0.0,0.0,0.0,0.0,0.0,0.0,0.0,0.0,0.0,0.0,0.0,0.0,0.0,0.0,0.0,0.0,0.0,0.0
0.3727902596348768,0.39087774801713404,0.372804858139173,0.32373011589873457,0.25420393993674767,0.17729846039245137,0.10539830678762244,0.04764295065345036,0.008490221926593322,-0.012247086208311301,-0.018193338849974112,-0.014597419691478269,-0.006467938401735455,0.002622732158320077,0.010977083742024687,0.018448186984868904,0.025633999813117658,0.033163157837795124,0.04107478029294654,0.048729781359207705,0.0550897128197119,0.05914201306753919,0.06048130399657921,0.0593951788134299,0.0567880372975285,0.05383979652125374,0.05153004248950035,0.050471818500960476,0.050662512247435315,0.05161090704081514,0.05258988022279557,0.05287326767832492,0.05213996086694721,0.05042329998174438,0.04807248618636103,0.045575880223059397,0.04330416954190911,0.04154205490342498,0.040305167665662715,0.03940938632093381,0.03856188022332321,0.037408064939851285,0.035788733823015,0.03365115068187075,0.031077225159170743,0.028247044145728248,0.025331717259421006,0.0226268995817599,0.020379502939403507,0.01878168753397839,0.017932208068133285,0.017555972694684376,0.017919802820289564,0.018759453152442797,0.01974495133203903,0.02059531513707899,0.021017284234870006,0.021268348502731634,0.02154344991576605,0.02211481624274784,0.02325842220602468,0.025131013498752103,0.027845370281379928,0.031361216412914616,0.0355001290866975,0.0399729769903699,0.044369478814396304,0.048417330018931344,0.05187735692669463,0.05463055641438605,0.056687531774715104,0.05809020799227063,0.05912289153887223,0.060004882906895256,0.06091701899791872,0.06196376575362707,0.06307979947940213,0.06428626147696297,0.06546870424425259,0.06649209523214099,0.06723999973253902,0.06756891320487729,0.0675667046697163,0.06730370604033867,0.06688760416494406,0.0664348661936443,0.06597041015977158,0.0656406032528516,0.06547984421200752,0.06548512885267507,0.06562973265474958,0.06580979118677646,0.06607582728854067,0.06642597747045172,0.06686146844522287,0.06737304586430304,0.06786756937513432,0.06835287018578066,0.0687666293545591,0.06904044143534584,0.06911635907385649,0.0689104587496658,0.06848276306718239,0.06789332714189307,0.06722693141178704,0.0665684002099087,0.06592794033556687,0.06537892979336968,0.06491204597667564,0.06448169248377769,0.06402044134596091,0.06341097727043583,0.06265423749431108,0.06174298656568915,0.060705397177862185,0.059597674716378106,0.05843269897586819,0.057351780972877874,0.05642411377700249,0.05569387712324823,0.055174908086795295,0.054782320235806606,0.054562250848639776,0.05446625352744979,0.05443635243347345,0.05441737096377619,0.054292613718937545,0.05413653122448761,0.053960380702550347,0.05379007298753581,0.053659833840757086,0.053521808696240056,0.0535031446139197,0.053619650514215605,0.05385922473003108,0.05418324989512159,0.054386123524297246,0.054563144709106705,0.05469194963625649,0.054750625085570825,0.054706665949486095,0.05429875306521739,0.053693555371126966,0.05292744898217428,0.05206539285944358,0.05118664068799177,0.05023291313597756,0.049394313416531846,0.04870531972816496,0.04815013100385754,0.047666615426497444,0.04711650986567095,0.04647846095345338,0.04567521744257771,0.044673822801396604,0.04350669513234301,0.04221072947865722,0.041017219870905036,0.04007974547098971,0.039509928565882146,0.03934677483818858,0.03946752217904426,0.039855274652021724,0.04036732493392371,0.04086486646164962,0.04125786864436208,0.041451381937153295,0.041612842753919604,0.04187536433622734,0.042370168217290734,0.04316896245053557,0.04415251404184324,0.04527293786770658,0.046309368519089775,0.04701954283389939,0.0472388920082024,0.0469583761377188,0.046517197872624996,0.046499599235648253,0.04775805149448516,0.051308821565869224,0.05812347845145742,0.06900229251227909,0.08419615693212963,0.10327167678050181,0.12503475608134282,0.1475682538315852,0.1685549685723007,0.1854778728386912,0.19608013089378917,0.19876069059681645,0.19283792692186688,0.17878036660427105,0.15799343189116194,0.13262945943382165,0.10523648237642687,0.07834663346766531,0.054237073256497875,0.034560581495008395,0.020286718801262482,0.011712274156037287,0.00852291841203593,0.010007238694662409,0.015059006943916011,0.022349866533897516,0.030469329966799713,0.03806269872028282,0.04409720406342082,0.047926994693432465,0.04946691807403049,0.04922638577756213,0.048179104142130134,0.047583264038939116,0.048522566206166504,0.05158181667551999,0.05659335355258516,0.0625609648745535,0.06792711840071852,0.07086199815822822,0.06980951616962272,0.06396032132760819,0.05351930509018231,0.03980062480380127,0.02483300349254669,0.010904813795075107,0.0,0.0,0.0,0.0,0.0,0.0,0.0,0.0,0.0,0.0,0.0,0.0,0.0,0.0,0.0,0.0,0.0,0.0,0.0,0.0,0.0,0.0,0.0,0.0,0.0,0.0,0.0,0.0,0.0,0.0,0.0,0.0,0.0,0.0,0.0,0.0,0.0,0.0,0.0,0.0,0.0,0.0,0.0,0.0,0.0,0.0,0.0,0.0,0.0,0.0,0.0,0.0,0.0,0.0,0.0,0.0,0.0,0.0,0.0,0.0,0.0,0.0,0.0,0.0,0.0,0.0,0.0,0.0,0.0,0.0,0.0,0.0,0.0,0.0,0.0
0.5133023472757381,0.5413183805865691,0.5218254458576953,0.46215222421205676,0.37664546867005577,0.2826492124164309,0.1962318389439271,0.1284157129660329,0.08368804515171684,0.06025640181097409,0.05199607755712359,0.05129964486650417,0.05137798091739795,0.04817524745224464,0.04076540654355929,0.030684199009913656,0.02067464909880733,0.01307975194787091,0.00905796566515046,0.008290299208710874,0.009372320462703695,0.010612400117055191,0.01064024832816893,0.008957522278300298,0.005937097001716927,0.0024897698732870874,-0.0004173249700913347,-0.0022504691444325676,-0.003077623014723155,-0.003505224177833293,-0.004392780716129538,-0.006508418737254037,-0.010218240848217926,-0.01540718559864358,-0.021558196823352783,-0.02796868944914016,-0.03402949475319444,-0.039333602929536145,-0.043823547153559794,-0.0477464828248767,-0.05154459818215078,-0.05575693284586656,-0.0607478800976517,-0.06671237797900241,-0.07360492655909878,-0.0811449291092413,-0.08891201815494558,-0.09628603851544636,-0.10266507808685466,-0.10756643510341944,-0.11074526003633181,-0.1125813415507178,-0.11291131750293772,-0.11237283463739545,-0.11169435710514587,-0.11144376071984545,-0.11203719080954391,-0.11296598553462842,-0.11371640909886727,-0.11363939314163432,-0.11214226140335906,-0.10894351571155117,-0.10392460191616128,-0.0973917964695443,-0.0899128121778422,-0.0821626293570068,-0.07482358485333115,-0.0682080344102412,-0.06239477012361692,-0.05718260227788767,-0.052182997310654546,-0.04702736891751565,-0.041296759338796646,-0.034797095472267656,-0.027565056397279877,-0.019855470814425295,-0.012140979460818147,-0.004799672070434773,0.0018339200564302233,0.007586277548857433,0.012472055681803956,0.016601214358197797,0.020318710780280184,0.023966313826818974,0.02782128815822433,0.032015192167909344,0.0364384812110881,0.040901055109123924,0.04510644673028835,0.04874236034991318,0.051558328654014746,0.05338731263719828,0.05427087104152082,0.05443079477962522,0.054196386534071876,0.05391110741783367,0.05381609758099146,0.05402739829454404,0.0545748749189546,0.055374805564083716,0.0562638861816526,0.05704127759384847,0.057507484752600195,0.05763705621096361,0.057509497277590874,0.05726705365274936,0.05704933110584554,0.05693618913781017,0.057053471593274854,0.057487591518360234,0.058270221123846125,0.05936402983940879,0.06066459947191994,0.062142936276066874,0.06377475201032172,0.06551864665633926,0.0672696418914096,0.06891388119917903,0.07039255612078701,0.07167668882964666,0.07276707218883238,0.07364232353578942,0.07436797009686293,0.07504852743777828,0.07578844537423637,0.07665197925141178,0.07757144039534437,0.07851665369570962,0.07939667392279261,0.08010396381248609,0.08053688631399117,0.08054317068821315,0.0801716153176266,0.07948374202218912,0.07859125710406824,0.07762787661318642,0.07662660031906683,0.07577756115300423,0.07516170098340533,0.07481333999814789,0.07471886691238165,0.0747191846229973,0.07485450850823917,0.07507170508485964,0.07532592697991403,0.07558471781918416,0.07565393967300307,0.07571000779691506,0.07582223691758262,0.07605806988884943,0.07645056872598668,0.07673289324260105,0.07707650320655925,0.07747796268508947,0.07793505853930824,0.07844142706147474,0.07881793974095332,0.07920048712541641,0.07959746676077822,0.08001067536633699,0.0804322853969628,0.08076975429426529,0.08109944774183325,0.08141968740834142,0.08173519192397473,0.08205802242404595,0.08230638465846221,0.08260363516410767,0.08295649068182764,0.08333799741127886,0.08368375945112909,0.08378488684295086,0.08368038451586908,0.0833230337900803,0.08271579799874124,0.08192663178196012,0.08104426493926556,0.08030539061125493,0.07985939155202551,0.07980560858832755,0.08016950411279115,0.08084743606048708,0.08176662817760608,0.08269874533782369,0.08338957878653373,0.08364516777010234,0.08339329099257152,0.0829331668671575,0.0827983396222393,0.08383480329933644,0.08712083142741348,0.0937456378538123,0.10468942300299042,0.12033076150941512,0.14026898312393807,0.16320996936281376,0.18699982384049946,0.2090485280091378,0.2265707987263292,0.23716915146574646,0.23929910729821402,0.2325231098569582,0.21770701740446907,0.19661494990586545,0.1715936445899319,0.1451219966294561,0.11937770081777659,0.0961522065754849,0.07659557489249924,0.06139485913252001,0.05094488596069819,0.045430172666755794,0.044983940755384665,0.04934841101248853,0.057756505009458295,0.06878733446319257,0.08033520227631605,0.09000538900658678,0.09534538075228166,0.09448103309662233,0.08662978296568694,0.07234762572842207,0.053644695023861856,0.033364435153638794,0.014606395878171387,0.0,0.0,0.0,0.0,0.0,0.0,0.0,0.0,0.0,0.0,0.0,0.0,0.0,0.0,0.0,0.0,0.0,0.0,0.0,0.0,0.0,0.0,0.0,0.0,0.0,0.0,0.0,0.0,0.0,0.0,0.0,0.0,0.0,0.0,0.0,0.0,0.0,0.0,0.0,0.0,0.0,0.0,0.0,0.0,0.0,0.0,0.0,0.0,0.0,0.0,0.0,0.0,0.0,0.0,0.0,0.0,0.0,0.0,0.0,0.0,0.0,0.0,0.0,0.0,0.0,0.0,0.0,0.0,0.0,0.0,0.0,0.0,0.0,0.0,0.0
0.23929910729821402,0.25418486714945737,0.24756924638610833,0.22266206080650194,0.18589678912195337,0.1451219966294561,0.1075574436962709,0.07841640248730589,0.05996230003323814,0.05164863661798894,0.05094488596069819,0.0544583646871201,0.05926056749058841,0.06347783981636586,0.06652054137702347,0.06878733446319257,0.07090385992204999,0.07372739206979705,0.07753932337378282,0.08206361982513793,0.08662978296568694,0.09015881160482728,0.09242682410973245,0.09350524382548213,0.09388401310635146,0.0942310769302998,0.09495336155243084,0.09637070014913401,0.09832701830170604,0.10034737069883412,0.10183237089491266,0.10233335890307663,0.10158202771130528,0.09966339429237553,0.09694003502549779,0.09392227205312853,0.09111038416923577,0.08886430207608245,0.0873330427349745,0.08645479485849522,0.08601217321134438,0.0856676242482142,0.08519415381187084,0.08443047378216971,0.08333856075648519,0.08199997639807377,0.08054220157610607,0.07922486915162534,0.07827918571425055,0.07786216706782914,0.07798777958480313,0.07831831185933782,0.07876082969861917,0.07882573620342632,0.07802479813557295,0.07608252362482193,0.07303152783598862,0.06976329848314565,0.0676055633337223,0.068383301555711,0.07417726766484074,0.08688651189866911,0.1079857634269265,0.13786784107077552,0.1755776088120428,0.21867973644733854,0.2633214463433772,0.30485863646779365,0.33823669057666805,0.3588277887055939,0.3631822052298363,0.3495605343750417,0.3185076563501752,0.27257209540485416,0.21606376625879234,0.1544446235214277,0.09347091442830605,0.03866571058244554,-0.005696878864018648,-0.03696353589653302,-0.05429295818698086,-0.05865121191039145,-0.05215176559570949,-0.03790593138301279,-0.01933824072045622,0.00034442262375095696,0.01845807699508535,0.03341421765475657,0.044405209203281684,0.05141066901312463,0.05498180343448277,0.05587007324741842,0.05514240299971541,0.053624089336631646,0.05191035761146324,0.05034426761490862,0.04894373426466591,0.04783810278637313,0.04697322600768472,0.046280810874787755,0.045706731795334465,0.04510100484367899,0.044577335813723355,0.04413410443419768,0.04375974980449786,0.04343232951389105,0.043004169796302276,0.04258463914450965,0.042161825580031696,0.04170581334448559,0.041157927232447634,0.04030583877022766,0.03919020217906971,0.03775180208101453,0.035980701422541436,0.03394426611289567,0.031601294838170584,0.0294626013543452,0.02779815097835982,0.02683838157061223,0.02673060499334371,0.02723388200229569,0.028662379625490658,0.030778551241815038,0.0332460610455815,0.035733316280130066,0.037842642686157446,0.03969510219530017,0.04135253886649928,0.04296885844296492,0.04473602756691642,0.046776154573923735,0.04920800263086277,0.05208527790000109,0.05536832822517682,0.05892014758158116,0.06245215668146982,0.06578636886275244,0.06873659300992203,0.0711866297516291,0.07310426759624589,0.07443256257785348,0.07539104685577051,0.07613546315352614,0.07681270500986634,0.07753005455100555,0.07823634447243827,0.07904493134723835,0.07994789270491873,0.08092406739268536,0.08195584150576524,0.08293639726490246,0.0839890912729467,0.08516118356171992,0.08648641295705176,0.08795947798191045,0.08941930189127525,0.09086261112977141,0.09217472033266222,0.09323874835808085,0.09396311445805565,0.09420546140926665,0.09408941432785267,0.09371878766602763,0.093231354473527,0.09276006254797682,0.09229989318522429,0.09197982894380681,0.09179375304503574,0.09168327758788015,0.09155701063789799,0.09122360406581964,0.09070397233446312,0.0900010806358976,0.08916656655644263,0.08828148434493549,0.08741007782228014,0.08664533141521227,0.08600428665475741,0.08546853466259081,0.08500595805197299,0.0845704064250603,0.0842021813548351,0.08390824945476448,0.08369000124881877,0.08352866810569366,0.08334848527773567,0.08314369753321559,0.08285538841897307,0.08246915128354079,0.08205137815941432,0.08171588727614143,0.08172928358819931,0.08224747318931308,0.08330599530257889,0.08477283076725972,0.0863156551261358,0.08762739105959044,0.08834908050080789,0.08828281463301449,0.08749428337510509,0.08628071654656236,0.08523162938397759,0.08483021130756271,0.08532911584408975,0.0866167100657641,0.08816559959654834,0.08935176415467193,0.0894910566887801,0.08822377574845641,0.08573913675642311,0.08276386248253591,0.08055159136231423,0.08024969176910063,0.08252814124546493,0.08721127245325144,0.09309247606307604,0.09829219877441844,0.1004877061267174,0.09765033446610619,0.08868340815007979,0.07378933111181167,0.05469679441037862,0.034071655308975365,0.014953512920171254,0.0,0.0,0.0,0.0,0.0,0.0,0.0,0.0,0.0,0.0,0.0,0.0,0.0,0.0,0.0,0.0,0.0,0.0,0.0,0.0,0.0,0.0,0.0,0.0,0.0,0.0,0.0,0.0,0.0,0.0,0.0,0.0,0.0,0.0,0.0,0.0,0.0,0.0,0.0,0.0,0.0,0.0,0.0,0.0,0.0,0.0,0.0,0.0,0.0,0.0,0.0,0.0,0.0,0.0,0.0,0.0,0.0,0.0,0.0,0.0,0.0,0.0,0.0,0.0,0.0,0.0,0.0,0.0,0.0,0.0,0.0,0.0,0.0,0.0,0.0
0.3631822052298363,0.3791024916308069,0.3587558793652673,0.3071458645721364,0.23469294636650348,0.1544446235214277,0.07890938376104169,0.017550356799698432,-0.024724140542474373,-0.04760609022572134,-0.054292958186980864,-0.04979880858600347,-0.039100036379709505,-0.025995001782397005,-0.012612996695633243,0.000344422623750962,0.01288292602719952,0.02514694821144294,0.036829779619173664,0.04712242551796488,0.05498180343448277,0.059503705874792964,0.06049833403334296,0.05849662112912276,0.05464570421998998,0.05034426761490863,0.04674134065999493,0.044607021188409285,0.044050409381522146,0.044650957642297234,0.045706731795334465,0.046456265742426894,0.046525329182484525,0.04585749728516652,0.04469780029605615,0.04343232951389105,0.042326978418075346,0.04162590175005161,0.04132805926431275,0.04126077801253454,0.041157927232447634,0.04066770987990868,0.03967393798596795,0.03814505380276865,0.03617431361346924,0.03394426611289567,0.031601294838170584,0.0294626013543452,0.02779815097835982,0.02683838157061223,0.02673060499334371,0.02723388200229569,0.028662379625490658,0.030778551241815038,0.0332460610455815,0.035733316280130066,0.037842642686157446,0.03969510219530017,0.04135253886649928,0.04296885844296492,0.04473602756691642,0.046776154573923735,0.04920800263086277,0.05208527790000109,0.05536832822517682,0.05892014758158116,0.06245215668146982,0.06578636886275244,0.06873659300992203,0.0711866297516291,0.07310426759624589,0.07443256257785348,0.07539104685577051,0.07613546315352614,0.07681270500986634,0.07753005455100555,0.07823634447243827,0.07904493134723835,0.07994789270491873,0.08092406739268536,0.08195584150576524,0.08293639726490246,0.0839890912729467,0.08516118356171992,0.08648641295705176,0.08795947798191045,0.08941930189127525,0.09086261112977141,0.09217472033266222,0.09323874835808085,0.09396311445805565,0.09420546140926665,0.09408941432785267,0.09371878766602763,0.093231354473527,0.09276006254797682,0.09229989318522429,0.09197982894380681,0.09179375304503574,0.09168327758788015,0.09155701063789799,0.09122360406581964,0.09070397233446312,0.0900010806358976,0.08916656655644263,0.08828148434493549,0.0873322948604747,0.08648734403070647,0.08580994763296557,0.08532315431971094,0.08500595805197299,0.08469853363936244,0.08443423850369121,0.08416683557073452,0.08386736662550394,0.08352866810569366,0.08305344908843887,0.08259916327294113,0.08223713787886294,0.08203715388198071,0.08205137815941432,0.08218121683280145,0.08255375227018098,0.08314833901320522,0.0839131852723716,0.08477283076725972,0.08551940215811236,0.08620717133770141,0.08678557473340488,0.0872202324720857,0.08749428337510509,0.08748777860376329,0.08735544441108295,0.08713951048686445,0.08688133408653678,0.0866167100657641,0.08624865335803751,0.08594828880214818,0.08575064692822619,0.08567811154900948,0.08573913675642311,0.08579679578902291,0.08599034654700695,0.08631005759674583,0.08673007861715029,0.08721127245325144,0.0874976082877994,0.08777167452637906,0.08805409094453132,0.08836149244779025,0.08868340815007979,0.08868155231749286,0.08857308773655864,0.08837355317555078,0.08811829357850282,0.08785375293877097,0.08742463857535072,0.08707630720505097,0.08687380045906899,0.08685512734317916,0.08702409772746217,0.08724295148584847,0.08759788186129129,0.08804860056210981,0.08855672399115347,0.08909447015885523,0.08952649605722411,0.08997820319122048,0.09043827479196695,0.0908616410060216,0.09116484259024829,0.09111160340648604,0.09074155901743802,0.09000796873327606,0.08893066980574699,0.08761309014971645,0.08619052003618896,0.0849643116288623,0.08413279595628308,0.08382360493641602,0.0840613377091846,0.08470674924571056,0.08563656876713638,0.08655312476990362,0.08714082316377182,0.08717465432273268,0.0865957356037551,0.08578855625338457,0.08541777924285614,0.08649854532733438,0.0902879709362807,0.0980212848907787,0.11077532245829223,0.12891651516811947,0.15191955627890275,0.17826181013951828,0.20548236855726926,0.23067818600224987,0.2507729966771412,0.263166075066301,0.2662356493427558,0.2595970839611868,0.24430288729735117,0.22235889374012408,0.19635970754891352,0.16898049204419896,0.14249791429608502,0.11871002865283811,0.09867287241516151,0.08292807706891306,0.0717253347456421,0.0651472681131332,0.0633090252043495,0.06600369713649086,0.07256938148600232,0.08171004685482876,0.0914248605580426,0.09939255850927611,0.10317737285923598,0.10088383877756651,0.09169475896401542,0.07614066490568958,0.05624765245630233,0.03489951787807021,0.015255058379994376,0.0,0.0,0.0,0.0,0.0,0.0,0.0,0.0,0.0,0.0,0.0,0.0,0.0,0.0,0.0,0.0,0.0,0.0,0.0,0.0,0.0,0.0,0.0,0.0,0.0,0.0,0.0,0.0,0.0,0.0,0.0,0.0,0.0,0.0,0.0,0.0,0.0,0.0,0.0,0.0,0.0,0.0,0.0,0.0,0.0,0.0,0.0,0.0,0.0,0.0,0.0,0.0,0.0,0.0,0.0,0.0,0.0,0.0,0.0,0.0,0.0,0.0,0.0,0.0,0.0,0.0,0.0,0.0,0.0,0.0,0.0,0.0,0.0,0.0,0.0
0.2662356493427558,0.28347542663644715,0.27722291952046735,0.25106796463561365,0.21211823043221525,0.16898049204419896,0.12949187696290537,0.09921322163191988,0.08040838781851882,0.07223980553150752,0.0717253347456421,0.07501912764202584,0.07889314445601513,0.08139865523515681,0.08209958890519838,0.08171004685482876,0.0813537326563553,0.08209048778311655,0.08432965648952884,0.08778400216665502,0.09169475896401542,0.09515185269708984,0.09765193103788386,0.09913753251206653,0.09998871318589807,0.1007922364742654,0.10196579942802088,0.10376399334702492,0.10601737081417709,0.10825451690931491,0.10988971398451539,0.11034566473172552,0.10949151738881825,0.10748218148753924,0.10473599262012574,0.1017782182305476,0.09897924623802427,0.09671484574599507,0.09511558219666066,0.09414551920877949,0.0936667224765798,0.09341693129061894,0.09334097107710916,0.09339558569141307,0.09357864706128519,0.09388455933804406,0.09417026148792806,0.09442379164723719,0.09455797273231484,0.09447947670645057,0.0941023961995083,0.09312516855438144,0.09185367382540965,0.09030184905659144,0.0885109502426401,0.08656848868378203,0.0844141872612122,0.08245837555836025,0.08086534136631394,0.0797264937515261,0.07903458116805576,0.0785300285347025,0.07819847936091034,0.07787543334469794,0.07742468530735355,0.07678034935780995,0.07576386368298726,0.07473671355674964,0.07398624266299111,0.07382881411186731,0.07452611754756414,0.07594351732474457,0.07833504429373843,0.0816075444740171,0.08554413662400229,0.08983630362281052,0.0937222919393705,0.09727895904872882,0.10039195165736048,0.10302212681858386,0.1051464896980569,0.10616059943910477,0.10652481927928058,0.10639428879872596,0.1059840476105741,0.10552831486497634,0.10489227405779189,0.10454031416928693,0.10460361427962478,0.10509701665083225,0.10591014003189578,0.10671600683844483,0.10741502140246821,0.10781464198080722,0.1078258824494574,0.10750662630808398,0.10695408570159301,0.10659524754389381,0.10673159699656923,0.10756029069959683,0.10910311258427217,0.11109356991618752,0.11331728984581331,0.11537107587278606,0.11690605994682073,0.1177670731611879,0.11802440097984755,0.11824815763962597,0.11916994420645174,0.12163927061358078,0.12643103373810355,0.13398678367831401,0.1444308055755065,0.15727283620473145,0.17155934270368842,0.18609698948745282,0.19975580258160736,0.21197059445553493,0.2228715963593837,0.23350716235931288,0.24576294523680206,0.26199720452980724,0.28453509115976683,0.3148434184406441,0.3529618268320596,0.3971150404992421,0.4436954914185104,0.4876706838545697,0.5232385438285759,0.5448925945338284,0.5484671357616822,0.5320036499975053,0.4961479637857807,0.44400970272437007,0.38069653070145393,0.31245485140434015,0.2456838912014829,0.18588826545288673,0.13687609185261213,0.10044695232874497,0.07644256704699813,0.06318004868735833,0.057946772723326406,0.057614394481891956,0.05928301328933798,0.06072857275973965,0.0606417047005101,0.05862961314445471,0.054914254201439444,0.05012401561096154,0.04501457847248117,0.04021477675724559,0.0361831746501868,0.03296265336585946,0.03032182495220203,0.027887268618832693,0.0252345240982426,0.022222022054840817,0.01875237479313494,0.014878701887636039,0.010759958765184225,0.006496604901918269,0.0023919356732581454,-0.001480581870630584,-0.005144143047605099,-0.008683507300000323,-0.012335340356757596,-0.015988498424967277,-0.0197454945707891,-0.02373740022512868,-0.02812697336518487,-0.033271657207090764,-0.03907563167994614,-0.04566692297832928,-0.05305832173727209,-0.06106792292518242,-0.06950310755321884,-0.07743499228297682,-0.0843510640058738,-0.08990762525843049,-0.09400887248517995,-0.09711974571022851,-0.09914465639277975,-0.10073299293585877,-0.10255646641313397,-0.10505840937464833,-0.10843803024254828,-0.11198746263169952,-0.11499342188556394,-0.11661972953484882,-0.11610794626411672,-0.11300943989289809,-0.10716998035372144,-0.09896920060266735,-0.08917735736934886,-0.07878453544026581,-0.06880738553524171,-0.059944979112053265,-0.052566367003642346,-0.04657752419721168,-0.04146112461641489,-0.03645519231181339,-0.030699890087571888,-0.02360845146867502,-0.015022794046188639,-0.005292380721861156,0.004780348824783518,0.014202016054216768,0.02200848721950551,0.02758615962121169,0.030876363172692576,0.032408101842110244,0.033165663789027855,0.0342507984605991,0.036517695879482816,0.04025216501670224,0.04501915154739411,0.04971639618844948,0.052888428821908556,0.05315006501000212,0.04962796686071192,0.04228776446107979,0.0319589017685767,0.02022333350356139,0.008989960984841868,0.0,0.0,0.0,0.0,0.0,0.0,0.0,0.0,0.0,0.0,0.0,0.0,0.0,0.0,0.0,0.0,0.0,0.0,0.0,0.0,0.0,0.0,0.0,0.0,0.0,0.0,0.0,0.0,0.0,0.0,0.0,0.0,0.0,0.0,0.0,0.0,0.0,0.0,0.0,0.0,0.0,0.0,0.0,0.0,0.0,0.0,0.0,0.0,0.0,0.0,0.0,0.0,0.0,0.0,0.0,0.0,0.0,0.0,0.0,0.0,0.0,0.0,0.0,0.0,0.0,0.0,0.0,0.0,0.0,0.0,0.0,0.0,0.0,0.0,0.0
0.5484671357616822,0.5795615306042977,0.5604556698248141,0.4989172488263023,0.4101369638930648,0.31245485140434015,0.22281722422707256,0.1528256616665386,0.10715490067768477,0.08385634028576508,0.07644256704699812,0.07691129143008857,0.07817819703657534,0.07606948770801472,0.06970093144892536,0.060728572759739655,0.05198511486881994,0.045795952836753515,0.04315569672356811,0.043467577167070566,0.045014578472481165,0.04584507991548652,0.04448970105190235,0.04052731455454374,0.03457344649698165,0.0278872686188327,0.021796720847366006,0.017172032778491216,0.014177696696760183,0.012323718773047034,0.010759958765184222,0.008630773200291115,0.005465217760571839,0.0012440554798718098,-0.0036576068479633717,-0.008683507300000321,-0.01338131586465267,-0.017483861351963007,-0.021059867817573533,-0.024447240782953322,-0.02812697336518487,-0.0326145114527054,-0.038197183737451984,-0.04495279108870909,-0.052706728515647915,-0.06106792292518242,-0.06955513949770775,-0.07754067597809139,-0.08448106467644734,-0.09000487562991191,-0.09400887248517995,-0.09704262086969599,-0.09900686041763652,-0.10058146256924479,-0.10245386448306978,-0.10505840937464833,-0.10862380646345798,-0.11233130293441397,-0.11538484042851961,-0.11689391134689606,-0.11610794626411672,-0.11272881076040547,-0.10667559775314481,-0.09843205014556912,-0.08881732572146783,-0.07878453544026581,-0.06929363743024337,-0.060813142168711934,-0.053523143852265496,-0.047228500085534905,-0.04146112461641489,-0.03573011867199781,-0.029426762252662497,-0.02222682322144018,-0.014095787514866731,-0.005292380721861157,0.003618479445028992,0.01213618361362497,0.01973455020286735,0.0260358801425557,0.030876363172692576,0.03424019284453414,0.03645334749192073,0.03791832491904706,0.03906464819703615,0.04025216501670224,0.0416345031037291,0.04333228282189053,0.045310759614518546,0.04745602046453965,0.04962796686071192,0.05165006130680878,0.05350422713425936,0.05524134469828366,0.05696357530536425,0.058768674912210384,0.06066050381578995,0.06260274288708119,0.0645257126237432,0.06632859233307044,0.06790938296370884,0.06918377119808922,0.07011114914575031,0.07079748251970819,0.07140546649562547,0.07208945400639671,0.0729249734535307,0.07385221389690083,0.07480399888910243,0.07565914810526389,0.07626952504908459,0.07649503005075368,0.07619884358372894,0.07542888477441705,0.07432954944243904,0.0730945615422719,0.07189033005117958,0.07085295478815809,0.07012454909966277,0.06980077235866645,0.06991959803545919,0.0704150673245688,0.0712421942488422,0.07234455263656438,0.07365382062309804,0.07508280404144031,0.07645868829233213,0.07771866843885655,0.07878935465404284,0.0796318802589995,0.08024601004742145,0.08058345442676092,0.08079526456742077,0.08098240004036533,0.0812346688152448,0.08160244119203702,0.081986257146469,0.08241548577728638,0.08279856240405002,0.0830187442067256,0.08295887233665261,0.08242902910761739,0.08149616057810007,0.08020444893112658,0.07865539829068714,0.07698810236084079,0.07525175108852271,0.07369605541083267,0.07243968337938118,0.07154616459694925,0.07101733238502897,0.07069628677224225,0.07061147862528809,0.07067241191095058,0.07079059561016916,0.07089691809003272,0.0708024539047163,0.07067190698005088,0.07057493107280666,0.07059059975635314,0.07077650379503649,0.07094664201374112,0.07127671310936746,0.07175708025686044,0.07235743537379781,0.0730315712315643,0.07360124612277359,0.07414364259112168,0.0746234754516969,0.07501084759377571,0.07528663866809211,0.07540406436661284,0.07544197390246699,0.07541023868193737,0.07532015879540233,0.07519034687694343,0.07501074474870954,0.07488919730577683,0.07485257553537024,0.07491720463394497,0.07509405508579474,0.07535003252449349,0.07576500413957118,0.07632025859949669,0.07697597781808048,0.07768104056434043,0.07834054173478268,0.07898376763838158,0.07955632719254734,0.08000183500862124,0.08026802604288612,0.08026375374792853,0.0800187148080192,0.07946896620038091,0.07855440302889607,0.07726241930016899,0.07564434082377745,0.07402221161780899,0.07282444428278906,0.07265805969184458,0.07425681255745184,0.07832793358762735,0.08552240652804387,0.09606103587061982,0.10964315385064356,0.12536967376811456,0.14174027181148904,0.15694961130943527,0.16896656434035728,0.17593043542947845,0.1764825349787773,0.16998632453371265,0.15679132189892311,0.13801450702829554,0.11542531271442392,0.09115859943983044,0.0673394879693695,0.045907314618825495,0.028184613573447176,0.014826547381108834,0.005834663900883564,0.0006392913879861442,-0.001562571413178884,-0.0017905274972086901,-0.0010134497612794184,0.0,0.0,0.0,0.0,0.0,0.0,0.0,0.0,0.0,0.0,0.0,0.0,0.0,0.0,0.0,0.0,0.0,0.0,0.0,0.0,0.0,0.0,0.0,0.0,0.0,0.0,0.0,0.0,0.0,0.0,0.0,0.0,0.0,0.0,0.0,0.0,0.0,0.0,0.0,0.0,0.0,0.0,0.0,0.0,0.0,0.0,0.0,0.0,0.0,0.0,0.0,0.0,0.0,0.0,0.0,0.0,0.0,0.0,0.0,0.0,0.0,0.0,0.0,0.0,0.0,0.0,0.0,0.0,0.0,0.0,0.0,0.0,0.0,0.0,0.0
0.43862586428105405,0.46187736092314907,0.44390096666846285,0.39085308764259014,0.31501400545489183,0.231382647005483,0.15393431177743233,0.09262906071552071,0.051865581745566866,0.030647888033338518,0.024139429729911937,0.025917669842554517,0.030174823375840782,0.03315535970391021,0.033596582936686256,0.0322336775971494,0.030745046728701368,0.030675906019024642,0.032670729145214836,0.036288866958460606,0.040327925464386835,0.043418553308610504,0.044643052422618484,0.04384377842963109,0.04160473476948607,0.03893187054994665,0.03678791910319959,0.03577374550895398,0.03591404996568519,0.036739532888816595,0.03753581563550643,0.03761882402123517,0.03665563807790529,0.03468547554181294,0.03206286270193856,0.02927988369320493,0.026735913075268104,0.02470044615936913,0.02319433756449738,0.02205363085683479,0.021023951750903425,0.01982034777312044,0.01831186908120327,0.016457734536591172,0.014313350170253895,0.011995252774613382,0.009609899729050724,0.007347633652827949,0.005383486807205074,0.003881398406924996,0.0029665537983233365,0.0024296579219644427,0.0026836541604340555,0.003545030441814191,0.004725632170079418,0.005936015129998876,0.006818160254245579,0.00753539722974387,0.00809042451673493,0.008528188835025844,0.008905476461674415,0.009223574213988532,0.00953545905281185,0.00982460722329339,0.010057219139676388,0.010207130521400999,0.0102368520809974,0.010256842366024265,0.0103804227901568,0.010750641698850287,0.011508784581127578,0.012708372039885046,0.014446901063141497,0.0166809182342832,0.01928279981229152,0.022064554709198193,0.024760885421655304,0.027248615828385173,0.029405067065296567,0.03118450537473701,0.03262032483726881,0.03374831749991746,0.03476694665771964,0.03581212162920477,0.03697822601592891,0.038293335603329356,0.039663135151017694,0.04103795485109617,0.04229010549136351,0.043295173689294864,0.043966346369389904,0.04424047543442056,0.04420304699799873,0.04396100151430312,0.043646552900738184,0.04337871204278085,0.04319409760828832,0.04312848036935615,0.043121056919280636,0.04305579536916975,0.04279107771617178,0.04216695181055703,0.04112919488333769,0.039681567839070314,0.03790766793810545,0.035954404469763133,0.03396649192445093,0.03215767135737409,0.030689196793812278,0.029665530245636337,0.029117731223354492,0.02896105994866851,0.02913310679685619,0.029513283935139748,0.029977544186432392,0.030421877573343237,0.030749674599486885,0.03097722181567498,0.031151356271296404,0.03136279695296907,0.031726023923331986,0.032332494954408805,0.03328823842544485,0.03462737817347348,0.0363148488835561,0.0382424322561037,0.04020050889651966,0.04202354991796164,0.04350369718554617,0.044458510541119586,0.044758840588875415,0.04429179057770076,0.04314841112724895,0.041446239469068544,0.03936373312845756,0.037113338394591716,0.034846729792855746,0.03282827591637362,0.03121292754726768,0.030088378408626118,0.029467836200308024,0.029223608415287997,0.02933004415831291,0.02966513776050663,0.030103039276195172,0.03053692496812283,0.03083066866057179,0.031036743513588174,0.031187638666840864,0.031349492948645336,0.031606013735937626,0.03198020666536521,0.03260730948789452,0.0335250597688068,0.034721648064487784,0.03612955552152667,0.03757231548896476,0.03894323984373214,0.04004903643944687,0.04068316802614066,0.040653097307115714,0.03976377877632784,0.03799985214145159,0.035402331008711006,0.03212509177058972,0.02842978451488106,0.024615621738842998,0.021129241628289067,0.018364641453888084,0.01665190244047578,0.016206471722646408,0.017047951971183636,0.019136386693453508,0.022237903220009327,0.02600834877358933,0.03004931812284289,0.033951719293732446,0.037431062908261585,0.040275053730391114,0.04240749137528196,0.04389216452303938,0.044884469547442865,0.04566909177980142,0.046479116893159006,0.047477370019387156,0.04871605129765812,0.05010535580735708,0.05150688550694362,0.05268632001143777,0.05341559707818414,0.05353993807227686,0.05300628418553156,0.05192814837047225,0.0504781607668363,0.04886076753167543,0.047254066648313574,0.045751707347947757,0.04441139343490806,0.04319763159533787,0.04205697874119404,0.040968195224350294,0.039953900238244404,0.03913407956016404,0.038600507521555014,0.038388453765781524,0.038432478512659234,0.03854044730028059,0.03850671328684972,0.03810226077364339,0.03720893572381908,0.03589676180096818,0.03441726310277431,0.033217023479557906,0.032696981010797085,0.03308990371759145,0.03433110620488906,0.03599514644430375,0.03741351049021284,0.03776731912617759,0.036344415453814255,0.03276545060880994,0.02712223786613057,0.020025363461368968,0.012435396478985705,0.005443815428146367,0.0,0.0,0.0,0.0,0.0,0.0,0.0,0.0,0.0,0.0,0.0,0.0,0.0,0.0,0.0,0.0,0.0,0.0,0.0,0.0,0.0,0.0,0.0,0.0,0.0,0.0,0.0,0.0,0.0,0.0,0.0,0.0,0.0,0.0,0.0,0.0,0.0,0.0,0.0,0.0,0.0,0.0,0.0,0.0,0.0,0.0,0.0,0.0,0.0,0.0,0.0,0.0,0.0,0.0,0.0,0.0,0.0,0.0,0.0,0.0,0.0,0.0,0.0,0.0,0.0,0.0,0.0,0.0,0.0,0.0,0.0,0.0,0.0,0.0,0.0
0.27578743801731953,0.2892305562443707,0.2762642446728103,0.24090281765083407,0.19108335132926482,0.13646382703439108,0.08594813297893794,0.045852521925326,0.018781130320648563,0.0037375822508790234,-0.0028597839485373843,-0.005705068695287558,-0.008946707007668277,-0.015217363275818208,-0.02519628407191836,-0.03784980382892851,-0.05116830633122677,-0.06280227988795745,-0.07086791953925353,-0.07428759666679334,-0.07283982370931966,-0.06704233909764847,-0.05766093280644214,-0.045623745985502694,-0.031852723137224564,-0.017244327473107272,-0.0027715126336536455,0.010728595924449033,0.02244854530683691,0.03176315849543327,0.03835116876310512,0.042196467966952866,0.04380422430850781,0.043919678239351265,0.043382822762022454,0.04292123001527225,0.04291910648216732,0.04356959335711739,0.044749537559438064,0.04616701931701353,0.04749129126743938,0.04839422320863926,0.0488176458695322,0.048820748715551525,0.048569385319305686,0.04826142192687258,0.047997353915184615,0.04792402777732181,0.04808695729746872,0.04847408057429279,0.04903155258630577,0.0494841553774321,0.05005730092506686,0.050656487972842223,0.05118707254617535,0.051596505298098456,0.051776981772023146,0.051987768022550784,0.05236472809577079,0.053048757687289755,0.05416145800989113,0.05573511858075712,0.05783242095201422,0.060431563485573825,0.06344126558135162,0.06669983316551899,0.06995701784217453,0.07298525165647789,0.07560143799679787,0.07769388492028695,0.07923820832114684,0.08027726237696152,0.08092241495402248,0.08137853069060716,0.08184847123317752,0.08246947958541491,0.08322329523284484,0.08406266189688329,0.08485594556327045,0.08544689222408654,0.08570075084968298,0.08546444166700054,0.08483079712029697,0.08390421262436237,0.0828374265115759,0.08178540533522928,0.0807770603429495,0.07994112512479717,0.07925080604770832,0.07860745521828699,0.07787005982077559,0.07680958203300783,0.07542141083778181,0.07369353806309228,0.0716913279429775,0.06954258601625123,0.06732398435778392,0.0652845078310377,0.06355627966783282,0.0622041397311766,0.06121511221172687,0.06042778618301059,0.05980797095755248,0.05923609719817313,0.058614750388462894,0.057893673838652376,0.05699750296208742,0.05609120307113429,0.055299658937039024,0.054756894681830655,0.054572235465577885,0.054712132932154496,0.05527068116794191,0.05619122395743371,0.05736345310245866,0.058646443923010494,0.059799325775880166,0.06082003000115709,0.06165021680015283,0.062275978840705994,0.0627206523804431,0.06292504691212322,0.06306899522712549,0.06320900389033977,0.06337702863864393,0.06357974082269847,0.06370190344431152,0.06385186178309739,0.06402437636354041,0.06421780403413106,0.06443882926495384,0.06460109960053456,0.0648515447180091,0.06521409294079356,0.0656920339120279,0.06626366861778422,0.06678210461733909,0.06730274315981384,0.06775125781226003,0.06804112583715397,0.06808850797061461,0.06773047101536239,0.06705665240834507,0.06608918305141859,0.06488893054063809,0.0635525268808788,0.0621078620298744,0.06080549296189551,0.05978860548023657,0.05917004357040579,0.059016545791142995,0.059247092327104185,0.05992670627909229,0.06097917483033364,0.06228853055761632,0.06371569054764138,0.06503070693761302,0.0662120746949656,0.06718528707034314,0.06791676789449616,0.06841483530413978,0.06864028934430719,0.06875666297112937,0.06885012594796737,0.06898977588164015,0.06921115463752087,0.06942301774713552,0.06967908308609366,0.06991579639790498,0.07005189980984902,0.07000747397090196,0.06963601126000955,0.06901612896888337,0.068175364106657,0.06717440000957044,0.06609699726061576,0.06500117718236394,0.06402803841005396,0.06322595892595094,0.06261225150161345,0.062186520550329534,0.06191026442847893,0.061839340538225714,0.061952874233507704,0.062207818117065564,0.0625382521429924,0.06282697977192857,0.06305236981439621,0.06314288377992947,0.06307280793517728,0.06288998373565527,0.0626824005538544,0.06268063120263573,0.06302273768440447,0.0637570670090648,0.064804710953991,0.06592834075261925,0.066906489949243,0.06745602903839736,0.06739431576066957,0.0667194381723267,0.06559767661919018,0.0644202449299041,0.06352857742886923,0.06313262324920921,0.06321414253050223,0.06347917551199024,0.06356959122724586,0.06306499720595486,0.06173893144877818,0.059708846888677745,0.05743040696206926,0.05570986439246655,0.055276302036050655,0.0565485148368096,0.059396039554281375,0.06301417082628764,0.06617496992142724,0.06735548273859522,0.06522889578556225,0.059083232219885005,0.04905669951419776,0.03630508027386622,0.022587415035182648,0.009904017226844836,0.0,0.0,0.0,0.0,0.0,0.0,0.0,0.0,0.0,0.0,0.0,0.0,0.0,0.0,0.0,0.0,0.0,0.0,0.0,0.0,0.0,0.0,0.0,0.0,0.0,0.0,0.0,0.0,0.0,0.0,0.0,0.0,0.0,0.0,0.0,0.0,0.0,0.0,0.0,0.0,0.0,0.0,0.0,0.0,0.0,0.0,0.0,0.0,0.0,0.0,0.0,0.0,0.0,0.0,0.0,0.0,0.0,0.0,0.0,0.0,0.0,0.0,0.0,0.0,0.0,0.0,0.0,0.0,0.0,0.0,0.0,0.0,0.0,0.0,0.0
0.3564927582775701,0.3760804353511531,0.3626337345467155,0.3211891663378101,0.2616786463504115,0.19615247727861612,0.13576659014686748,0.08831715775633876,0.057071754698100184,0.040944987914331286,0.035812196279662145,0.036398227555595256,0.038025626825146486,0.037815998067495436,0.035007328848630455,0.030507522274246687,0.02598270957393748,0.022951686427633584,0.022116875838890618,0.02319949135657085,0.0252028482688312,0.026884875368847476,0.027377397352606175,0.026407307481711183,0.024326851835596703,0.02187068842176658,0.019625890190514774,0.01822737819404646,0.017805655379113508,0.018087863626789272,0.01853852857470195,0.018261366763458905,0.01710401802066039,0.015071004740993297,0.012457802525439567,0.00970235732503703,0.007063113277289622,0.00489004781026175,0.003245770002983519,0.0019941036464927856,0.0008661860753721044,-0.0004184070944038607,-0.0021420696968427527,-0.004458298340040661,-0.007367052913605774,-0.010706561683565857,-0.014177960639258715,-0.017400190799544295,-0.019990781828843958,-0.021657472215823693,-0.02227930944250382,-0.02216191197551183,-0.021235598249839248,-0.019959251320735824,-0.018816872316653386,-0.01813363003034158,-0.018071451801187733,-0.018138943098695345,-0.01783351155048946,-0.016596282372481435,-0.013987950618179335,-0.009885278664183044,-0.004434231241055145,0.0018322317571843852,0.008180754176084822,0.0139159464237033,0.01862759330025069,0.022551206011234514,0.026591162600649414,0.032332412660257256,0.04181984346558593,0.057133856072724275,0.07997183064227462,0.11103588848056473,0.14966148674037552,0.19363808404074817,0.23930103871761507,0.28202170288580325,0.3167927191142611,0.33905122580024977,0.3454563246159104,0.33447400241606134,0.30673426853829217,0.2649080140738152,0.21331900085570688,0.1572699502307495,0.10222508324738871,0.05306314514725548,0.013413720579100058,-0.014696846373593496,-0.030916424154411475,-0.036372090503973345,-0.03324735452192319,-0.02429376326890509,-0.012324132749788077,0.0002020445427789244,0.011437730918687536,0.02029303131856456,0.02638428642996097,0.029885623171201615,0.03132051323996932,0.03132928526153353,0.030542161280906383,0.029455501433082815,0.028380223026226576,0.02744862851272152,0.02663329119050283,0.025881418076635153,0.025135623951281418,0.024367078149801397,0.023576743785473715,0.02274449339743439,0.021905534028231,0.021078419882060155,0.020268373259585273,0.019467893565411655,0.018625952092829547,0.01777632992700483,0.016935088836843814,0.01612442670707024,0.015359043345349595,0.014590815896561908,0.013846253635617702,0.013080266688145915,0.012246909350113973,0.01132510326465881,0.010223849221711425,0.009206940937818622,0.008346967018229852,0.00769893999218618,0.007291163183968024,0.00692931426156058,0.006891793838407148,0.007031045509981722,0.0071547449687766876,0.007112232869381516,0.006778774567728655,0.0063973669065410105,0.006148012710052183,0.006253871102099776,0.006933302554795011,0.008367311360731374,0.010587483668979865,0.013537728641785112,0.01704270836723295,0.020832162749455277,0.024588340864091736,0.028012311207108318,0.030883769314969882,0.03310772696684124,0.034731022944115536,0.03590301358593571,0.03690154068511143,0.03797209355857919,0.03929059401483173,0.040912173649832545,0.04271029946500846,0.04451817904461527,0.0460467093178262,0.04698950864097926,0.04709332435554955,0.046158949927601715,0.04425416845175268,0.0415501384759715,0.03833183732284775,0.03493541486424326,0.03161409865096719,0.02866643177112936,0.02622760659051583,0.02430192721603315,0.022777505372936973,0.02140018258389519,0.020032939897256623,0.018539276020374362,0.016864930740618924,0.015043963845573771,0.013171170765746113,0.011383964335197094,0.009788300129353368,0.008435667492853828,0.007310422318210568,0.006335549965229417,0.005413552843457129,0.00444142353677083,0.00334884424031186,0.0021192852252840816,0.0007931051327356,-0.0005252628902799395,-0.0017028875008851321,-0.0025950123718724953,-0.003071851867642406,-0.0030506727201330373,-0.0025085253727138946,-0.0015176081323194622,-0.0002373720953938081,0.001114026898899937,0.00230632880228057,0.0032158785551572554,0.003849004539227041,0.004411074535663378,0.005299905665442278,0.0070080425641877745,0.010046750667659133,0.014683190985703792,0.020830527015002043,0.02799442014074591,0.0353228950268509,0.04188260333692827,0.04682823547883493,0.049716907469723855,0.05068893461604954,0.050448682561678934,0.050160691558968566,0.05097110262146187,0.05364187513852788,0.05822165850085713,0.06389650075751753,0.06919070676012018,0.07225508086727958,0.07142762908045099,0.06575438238566471,0.05532445047657401,0.04137099267476837,0.025949489456691538,0.011451193759258618,0.0,0.0,0.0,0.0,0.0,0.0,0.0,0.0,0.0,0.0,0.0,0.0,0.0,0.0,0.0,0.0,0.0,0.0,0.0,0.0,0.0,0.0,0.0,0.0,0.0,0.0,0.0,0.0,0.0,0.0,0.0,0.0,0.0,0.0,0.0,0.0,0.0,0.0,0.0,0.0,0.0,0.0,0.0,0.0,0.0,0.0,0.0,0.0,0.0,0.0,0.0,0.0,0.0,0.0,0.0,0.0,0.0,0.0,0.0,0.0,0.0,0.0,0.0,0.0,0.0,0.0,0.0,0.0,0.0,0.0,0.0,0.0,0.0,0.0,0.0
0.3454563246159104,0.3614332956857377,0.34352457355495675,0.29655353113525196,0.23038888966902996,0.1572699502307495,0.0888213732808546,0.03362724262729676,-0.004096953811078417,-0.02448809201971621,-0.03091642415441148,-0.028282766216928056,-0.021311644477223838,-0.013393356091218285,-0.006165167053926839,0.00020204454277892903,0.006275742958065231,0.012650792227367166,0.01939325597121002,0.025934946311978742,0.03132051323996932,0.034613202880649944,0.035391067379517985,0.033874556522747255,0.03086540598674965,0.027448628512721524,0.02457745214486409,0.022875329657924087,0.022425647529038112,0.02286125955673512,0.023576743785473715,0.023943396038870135,0.02363473921805068,0.022613875549194203,0.021107408816505167,0.019467893565411655,0.017986819107994007,0.01687459323674475,0.016153886393364923,0.01570922596174027,0.015359043345349595,0.014911248093375004,0.014274595448862195,0.013428486011908138,0.012418350446153616,0.01132510326465881,0.010223849221711425,0.009206940937818622,0.008346967018229852,0.00769893999218618,0.007291163183968024,0.00692931426156058,0.006891793838407148,0.007031045509981722,0.0071547449687766876,0.007112232869381516,0.006778774567728655,0.0063973669065410105,0.006148012710052183,0.006253871102099776,0.006933302554795011,0.008367311360731374,0.010587483668979865,0.013537728641785112,0.01704270836723295,0.020832162749455277,0.024588340864091736,0.028012311207108318,0.030883769314969882,0.03310772696684124,0.034731022944115536,0.03590301358593571,0.03690154068511143,0.03797209355857919,0.03929059401483173,0.040912173649832545,0.04271029946500846,0.04451817904461527,0.0460467093178262,0.04698950864097926,0.04709332435554955,0.046158949927601715,0.04425416845175268,0.0415501384759715,0.03833183732284775,0.03493541486424326,0.03161409865096719,0.02866643177112936,0.02622760659051583,0.02430192721603315,0.022777505372936973,0.02140018258389519,0.020032939897256623,0.018539276020374362,0.016864930740618924,0.015043963845573771,0.013115599334665553,0.01127109147916439,0.00964945612926523,0.008331801639493475,0.007310422318210568,0.006429210101289566,0.005583651575391574,0.004631466760220642,0.0034795251479685417,0.0021192852252840816,0.0005795569252787672,-0.0009191424791294263,-0.0021498146107634154,-0.0029071183133847866,-0.003071851867642405,-0.0027107143162472323,-0.0019054687215830832,-0.0008578975000572548,0.0002077892147791774,0.0011140268988999364,0.0017205829495557463,0.002169967960419625,0.0026963699851124574,0.003626959994024722,0.00529990566544228,0.007894135407725815,0.011605435202277586,0.016377502511334362,0.021968986514016832,0.02799442014074591,0.03392123551226465,0.03939593489962034,0.044097567648631375,0.047859963379762685,0.05068893461604954,0.0526700490686025,0.054143721042317496,0.05540850439782876,0.056717581615568474,0.05822165850085713,0.05988456071944533,0.06166486281417518,0.06337808956005571,0.06480530371834133,0.06575438238566471,0.06607099293128794,0.06579207095247329,0.06502290171059466,0.06394433844380969,0.06276642934757035,0.06164607683700839,0.06075273319389574,0.06015442230030415,0.05984809161055798,0.059778476309475984,0.059838357363443236,0.059975602013461436,0.06013926942790927,0.06030219996230255,0.06045425936472993,0.06056776517833592,0.060667240137664655,0.060770874763383706,0.060909707739518454,0.06113004241998388,0.06146675215475506,0.06200060440196919,0.06278902747085918,0.06385013296045854,0.06513765406700674,0.06650694000289231,0.06779177033539902,0.06878229885255228,0.06928082254258508,0.06914526571402958,0.06830088676153438,0.06681952572187976,0.06485244473324962,0.06261072795880156,0.06031577861044836,0.05813436838421545,0.056196017256816506,0.05450520883029431,0.052979866781851265,0.05148629150686714,0.04985750337290269,0.048034555884370785,0.045963505471256154,0.043656457666995975,0.041189986958146164,0.03865760589337974,0.036257545559553184,0.03411372045506684,0.032311859638419274,0.030893682409425183,0.029823462637857227,0.02912154465494974,0.02870040385038187,0.028440802540193107,0.028215334806512244,0.027881926334761643,0.027432485082586795,0.026850078678339932,0.02618127404871349,0.0255369872035993,0.025039923279635917,0.024899666360370783,0.025204932684767672,0.025938168576060606,0.026963002828553153,0.02801486944473892,0.028875758774002013,0.029294918661618846,0.029126737039460445,0.028389018453507008,0.027238907967434844,0.02604144119401264,0.025111976300259596,0.02466143790958381,0.024709520717853962,0.02501753683960518,0.02525383369574786,0.02492838404559157,0.023601141013791124,0.02103002298220092,0.017232030253178043,0.012632225260452587,0.007806922464545925,0.00340765636879861,0.0,0.0,0.0,0.0,0.0,0.0,0.0,0.0,0.0,0.0,0.0,0.0,0.0,0.0,0.0,0.0,0.0,0.0,0.0,0.0,0.0,0.0,0.0,0.0,0.0,0.0,0.0,0.0,0.0,0.0,0.0,0.0,0.0,0.0,0.0,0.0,0.0,0.0,0.0,0.0,0.0,0.0,0.0,0.0,0.0,0.0,0.0,0.0,0.0,0.0,0.0,0.0,0.0,0.0,0.0,0.0,0.0,0.0,0.0,0.0,0.0,0.0,0.0,0.0,0.0,0.0,0.0,0.0,0.0,0.0,0.0,0.0,0.0,0.0,0.0
0.2525236989999078,0.26799691857743896,0.2610718490859161,0.23535278224386033,0.19775166945226091,0.15650899290612008,0.11907756667834786,0.09043102799623022,0.07230830864882305,0.0634263628467775,0.060494286812332376,0.05961074230374071,0.05754527919069349,0.05257177600832491,0.04464857888710583,0.03502560894208948,0.025510723975957026,0.01772713082217386,0.012576806757911112,0.010080322870724634,0.00955693107184656,0.009996693507826655,0.010513318371469512,0.010588942440561067,0.010151457753314356,0.009454676323521451,0.008833227226883924,0.008564919982679196,0.008695856172307757,0.009055292259974555,0.009352421575196336,0.0092763106295492,0.00871022376949487,0.007695125432332577,0.006413609536253847,0.00510156328221412,0.003911975575282615,0.002962218544198004,0.002226963897283708,0.0015819197375330286,0.0008507049892319018,-0.00018499972493287706,-0.0016162310504195677,-0.003476900034818084,-0.0057152280812136245,-0.00820372944099724,-0.010799716888941232,-0.013240258600646563,-0.015269877206360654,-0.016659865478895503,-0.017258163871226383,-0.017204242425575184,-0.01631723201050587,-0.014828571076307643,-0.01305387794840589,-0.011294619869490213,-0.009873177143796426,-0.008668948545763708,-0.007613076009341274,-0.006558344407041721,-0.005331075867754043,-0.003851335920768889,-0.0019655024161884527,0.0003051169525563421,0.0028484961630190027,0.005498765124970115,0.008030616792318448,0.010382005352698492,0.012511997997808234,0.014460026873900628,0.01632860611769427,0.018202177023235018,0.020245084159692867,0.022545892174758896,0.025120747425327876,0.027902579978717822,0.03070547694123622,0.03339676343270518,0.03581948943392355,0.03786108848779117,0.03947655383974137,0.04064659673178298,0.04150785492801495,0.04220474477900723,0.042881428816112635,0.043641461917506195,0.04451727566703747,0.04547402599590529,0.04641465866624574,0.04722253003140687,0.047806369995271006,0.04813571017843227,0.04825579415943853,0.04827007622673155,0.04830176148129635,0.04844447450620179,0.04872548522113008,0.04907299263748507,0.04935267341192708,0.04940185093669977,0.049082579017132574,0.04833538247727809,0.04716481720441028,0.04567167936749393,0.04399775841740829,0.042278174435783,0.04061405164698948,0.03904680937393594,0.03761439307458495,0.03638214680390153,0.03547376985443342,0.03507181077305755,0.035361103317654255,0.036462434987872,0.038342321686881786,0.040761994189701535,0.04329153258308809,0.0454168990076996,0.04668095831896582,0.04685450947932356,0.04605021852496964,0.04472233405093858,0.04357955284040138,0.04331908344890698,0.04438030673390139,0.04673311498497514,0.049781711597140565,0.05251247284311611,0.053678480793017,0.052180806319582246,0.04741601144498064,0.03948258910195239,0.029287012020006314,0.018254161054794018,0.008015266159097865,0.0,0.0,0.0,0.0,0.0,0.0,0.0,0.0,0.0,0.0,0.0,0.0,0.0,0.0,0.0,0.0,0.0,0.0,0.0,0.0,0.0,0.0,0.0,0.0,0.0,0.0,0.0,0.0,0.0,0.0,0.0,0.0,0.0,0.0,0.0,0.0,0.0,0.0,0.0,0.0,0.0,0.0,0.0,0.0,0.0,0.0,0.0,0.0,0.0,0.0,0.0,0.0,0.0,0.0,0.0,0.0,0.0,0.0,0.0,0.0,0.0,0.0,0.0,0.0,0.0,0.0,0.0,0.0,0.0,0.0,0.0,0.0,0.0,0.0,0.0,0.0,0.0,0.0,0.0,0.0,0.0,0.0,0.0,0.0,0.0,0.0,0.0,0.0,0.0,0.0,0.0,0.0,0.0,0.0,0.0,0.0,0.0,0.0,0.0,0.0,0.0,0.0,0.0,0.0,0.0,0.0,0.0,0.0,0.0,0.0,0.0,0.0,0.0,0.0,0.0,0.0,0.0,0.0,0.0,0.0,0.0,0.0,0.0,0.0,0.0,0.0,0.0,0.0,0.0,0.0,0.0,0.0,0.0,0.0,0.0,0.0,0.0,0.0,0.0,0.0,0.0,0.0,0.0,0.0,0.0,0.0,0.0,0.0,0.0,0.0,0.0,0.0,0.0,0.0,0.0,0.0,0.0,0.0,0.0,0.0,0.0,0.0,0.0,0.0,0.0
0.29980748029557486,0.31419054440077643,0.2992782185792849,0.25916217997629365,0.20231878801919084,0.1393183643441301,0.08023899655000899,0.032624289392111906,0.00027924697046090427,-0.01673469127025669,-0.021170751607314586,-0.017170494184023475,-0.008795874661012091,0.0009436727096114031,0.010466595233803859,0.019401835338773557,0.02800921842070466,0.03660907469965676,0.045155889191359,0.053174516364928655,0.059974422284861675,0.06498200575617033,0.06807021074619105,0.06962526882580464,0.0704188567627038,0.07130824502788903,0.07286483535522918,0.0752681341602931,0.07817594577041405,0.08089434502817741,0.08264206777091639,0.0827595307571995,0.08109820272291526,0.07791016509334245,0.07377576696086903,0.06939753177270189,0.06530833692941547,0.06193990983166323,0.059402255749314674,0.05756459333608756,0.056152995774487395,0.05478278256773495,0.05329405749389955,0.05161215661606496,0.04978102803745218,0.04791005873470714,0.04602998833586165,0.04427465754336117,0.04267209109103466,0.041175544662076194,0.039667121694926886,0.03774975726511773,0.0356062400515707,0.03310283644868756,0.030176937482027957,0.026895423857835346,0.02327804200570868,0.0198766302349535,0.01706198557884306,0.01511203203133471,0.014123726020743809,0.01382512439667233,0.014025112695044174,0.014393777328849597,0.014628743575156405,0.014543026234662314,0.013756255340620527,0.012818897406284469,0.012295987282268639,0.012835456649843924,0.014962326448580825,0.01830547334612855,0.023299028794856347,0.029766406460248498,0.03733369056652186,0.04548476347518,0.05327432037855736,0.060480763169047276,0.06676957371617591,0.07195881172093266,0.07600720050177917,0.07887338693861455,0.08085804949312742,0.08220575884182303,0.0831965262237614,0.08411565869828001,0.08511482341547381,0.08647250748627527,0.08822772533845304,0.0902456796644209,0.09222411689478081,0.0936687520167938,0.09424808857913075,0.09366224986693882,0.09184354854636868,0.08903897105320466,0.08576673965173846,0.08293293420727296,0.08148614144785905,0.08227794612919018,0.08585382521162853,0.09225352729014702,0.10106193750959713,0.11134156959270351,0.1218931770495818,0.13159637402475136,0.13978210718193138,0.14668899016144885,0.1535847692804243,0.1627831672822981,0.17733892283787417,0.20044463318016464,0.23472235004068562,0.2813499817393739,0.3394293188644123,0.40567431739853094,0.4745577958942178,0.5389868786887142,0.5913192571317275,0.6246445031861957,0.6340097119591878,0.6173458701181913,0.5758736651168569,0.5139126365651128,0.43815295699120455,0.35652750440315645,0.2769171618121427,0.20602300288548436,0.1484198523072064,0.10619649231496886,0.07904529684712508,0.06472556666787715,0.059917021725280385,0.06085710313834521,0.06412087677918595,0.06712369776876848,0.06829825274623398,0.06723666471429866,0.06421685274989154,0.05994236205471519,0.05520209869041186,0.05053612003814906,0.04634886902974869,0.042613140728837554,0.03907752939789928,0.03543515772721363,0.03139638017762471,0.027094935021651806,0.022774390189750852,0.018826416585633724,0.0156682167640154,0.013499990002181307,0.012559152706034634,0.012719934595317296,0.013646222048761415,0.014886791904978398,0.015844303351878485,0.016363182247980907,0.01626183459615264,0.015494298404138917,0.01410536704594139,0.011982951794158437,0.009436116810056482,0.006512157924716589,0.0032433780861777705,-0.00029796250113582417,-0.004263557400480513,-0.007932897666317008,-0.011024296257067693,-0.013317287469791482,-0.014701292048213035,-0.015646202203420445,-0.01565792844570986,-0.015108057115942394,-0.014456768042151283,-0.014072908516582707,-0.014374449837157636,-0.014813886847512265,-0.01505923076862532,-0.014716751948810966,-0.013444524984952381,-0.011173774944651677,-0.0077789842571406205,-0.003460155289670378,0.0014301431391555309,0.006480827428475993,0.011209649778266618,0.015518878276907563,0.019380093180062636,0.02292894514473082,0.026406179841904368,0.02996004748433414,0.03391581324402556,0.038381936689327066,0.043318941151648784,0.04855108358305651,0.0537046454622854,0.05861651184419589,0.06310834368976438,0.06711552841647214,0.07069598732420865,0.0738965365701022,0.07702125121225448,0.08030120113817148,0.08389105693005093,0.08781241925606638,0.09183424232339249,0.09580010003968001,0.09944511223602108,0.1025348592200857,0.1049288511879241,0.10652477833354694,0.1075397298501191,0.10823976893287987,0.10892114989024713,0.109814759135036,0.110878404562369,0.11213487126271124,0.11339306836801336,0.11435943436332846,0.11470066708214789,0.11395773070853567,0.11209365491261303,0.10919516750108939,0.10554162469775079,0.10153816759388078,0.09764298458902776,0.09420295526603312,0.09146209894111601,0.08952380438887128,0.08837566810561366,0.0881420021379864,0.08850955880390529,0.08924709257861607,0.09012155752387603,0.09094131891903985,0.09163943630555049,0.09215946623777077,0.09255419372526201,0.09294844479211418,0.09350696973246604,0.09427726395599788,0.09548896936156011,0.0972201536516899,0.09944381191057648,0.10201367737185983,0.104539375180598,0.10686540307916026,0.10874479156061474,0.10999502198965554,0.11052038501125362,0.11014082058809986,0.10909173650649072,0.10751309340008332,0.10555196740115919,0.10334393678318726,0.10097870364311845,0.09871775998098016,0.09683491753692137,0.09577023505441629,0.09616748855512089,0.09877780291722768,0.10452269288242855,0.11398643239450554,0.1272382694113287,0.14358654312415112,0.16137711430139662,0.17823371719855163,0.191002606300331,0.1962855543441744,0.19100559769318132,0.1729339263164479,0.14140314194166745,0.09729882903391764,0.04320773372372647,-0.016796970602845716,-0.07764959885225955,-0.1336890767020735,-0.17958764869192115,-0.21089776881174746,-0.22459953889887277,-0.21955094383909238,-0.19652572511838304,-0.15841378276553006,-0.10982566499601738,-0.05648969840503695,-0.004461539103090165,0.041011677362181684,0.07615696674811047,0.09940865549553235,0.11162014208879886,0.11568322688244832,0.1158684696426676,0.11640983234372881,0.12039417807523044,0.1288720377848215,0.1404870329795841,0.15204844006193324,0.15924702836360874,0.15807720829741087
0.6340097119591878,0.6695948798967951,0.6468602818498292,0.5747585553480854,0.4708824084831071,0.35652750440315645,0.25133315764405567,0.16897255976481806,0.11507154167801548,0.08756254220089764,0.07904529684712507,0.08014680635195588,0.08265519463031855,0.08161127789264468,0.07584219430666507,0.06712369776876849,0.05853365495837237,0.0527644635340536,0.05096206156397789,0.05244243871994038,0.05520209869041185,0.05685665856194573,0.055672296048874303,0.05110196193675027,0.04384712131279301,0.03543515772721364,0.02752094576102456,0.021412377567140397,0.01763656015501077,0.01596274839248987,0.015668216764015398,0.015853007295231827,0.015947768092303215,0.01572412410458147,0.015285164043880708,0.0148867919049784,0.01465378960569371,0.014672512231808757,0.014786559158471683,0.014703887832233805,0.01410536704594139,0.01265426143533063,0.01033349850830052,0.007241681960094313,0.003602549423543942,-0.0002979625011358236,-0.004263557400480513,-0.007932897666317008,-0.011024296257067693,-0.013317287469791482,-0.014701292048213035,-0.015646202203420445,-0.01565792844570986,-0.015108057115942394,-0.014456768042151283,-0.014072908516582707,-0.014374449837157636,-0.014813886847512265,-0.01505923076862532,-0.014716751948810966,-0.013444524984952381,-0.011173774944651677,-0.0077789842571406205,-0.003460155289670378,0.0014301431391555309,0.006480827428475993,0.011209649778266618,0.015518878276907563,0.019380093180062636,0.02292894514473082,0.026406179841904368,0.02996004748433414,0.03391581324402556,0.038381936689327066,0.043318941151648784,0.04855108358305651,0.0537046454622854,0.05861651184419589,0.06310834368976438,0.06711552841647214,0.07069598732420865,0.0738965365701022,0.07702125121225448,0.08030120113817148,0.08389105693005093,0.08781241925606638,0.09183424232339249,0.09580010003968001,0.09944511223602108,0.1025348592200857,0.1049288511879241,0.10652477833354694,0.1075397298501191,0.10823976893287987,0.10892114989024713,0.109814759135036,0.110878404562369,0.11213487126271124,0.11339306836801336,0.11435943436332846,0.11470066708214789,0.11395773070853567,0.11209365491261303,0.10919516750108939,0.10554162469775079,0.10153816759388078,0.09764298458902776,0.09420295526603312,0.09146209894111601,0.08952380438887128,0.08837566810561366,0.0881420021379864,0.08850955880390529,0.08924709257861607,0.09012155752387603,0.09094131891903985,0.09163943630555049,0.09215946623777077,0.09255419372526201,0.09294844479211418,0.09350696973246604,0.09427726395599788,0.09548896936156011,0.0972201536516899,0.09944381191057648,0.10201367737185983,0.104539375180598,0.10686540307916026,0.10874479156061474,0.10999502198965554,0.11052038501125362,0.11014082058809986,0.10909173650649072,0.10751309340008332,0.10555196740115919,0.10334393678318726,0.1008310489742081,0.09841785400658994,0.09646600558945896,0.09549426090923399,0.09616748855512089,0.09900135010506578,0.10492324127025586,0.11442814518350863,0.12753818592010177,0.14358654312415112,0.16086627238970713,0.17729288054456147,0.1899364024816057,0.1955417859342302,0.19100559769318132,0.1737325531931782,0.14281611305523692,0.09884067814140422,0.04424567865002012,-0.016796970602845716,-0.07899772952608666,-0.13608917078004257,-0.18222538139709918,-0.21268763154509107,-0.22459953889887277,-0.21750356293054862,-0.19292214867695334,-0.15449359254729744,-0.10718901054512739,-0.05648969840503695,-0.007694769817155651,0.03527234234291097,0.06984927131969253,0.09511448346499105,0.11162014208879886,0.12084229909321718,0.12514090014429627,0.12676941764432756,0.127599109529614,0.1288720377848215,0.13097342561539393,0.1340968042815345,0.13792745854626723,0.1420454025247133,0.14612393348084413,0.1498427905592449,0.1535180815797691,0.1574187038098599,0.16180287859577958,0.16677195752913537,0.17198723439964358,0.17724052574853383,0.18196382869616198,0.1855316172024462,0.18741998157742662,0.18717212996893565,0.1850258854711141,0.18138098461642946,0.1768599195798952,0.1721513076202244,0.1676513281355912,0.16393990902932531,0.16108890733083284,0.1588764953794447,0.15688263366302216,0.1544263841966561,0.15138499196515454,0.14757636087281828,0.14304513016493692,0.13805134731716556,0.13287058771468568,0.12804874971122626,0.12402174567570223,0.1210645365428864,0.11922006097130897,0.11824032686634749,0.1176984491171085,0.1172881031263177,0.11677956985205756,0.11605083455292488,0.11496425815735908,0.11373986487599771,0.1127092831030878,0.1122892319062232,0.11288160813454079,0.11455269415376987,0.11765087388257028,0.12211516236490218,0.12766698361603612,0.13384640144578108,0.13986252324880746,0.14537341172464463,0.14990180845856116,0.15310449979279134,0.15481119475702135,0.15481859778182727,0.1535641847345597,0.15139516770854114,0.1487205852861857,0.1459438451838568,0.14317814408144122,0.14090497674307195,0.13921220517093644,0.13801410815113596,0.13707649561069224,0.13584796862350632,0.13426880352974052,0.132090223296687,0.12919841146646496,0.12567655596017244,0.1216207485624323,0.11779876463205045,0.11486979018358198,0.11350604137487401,0.11427661630965266,0.1173437895142794,0.12301034835685111,0.13102513710754735,0.14080749145078336,0.15152473225558213,0.16214132070312134,0.17183732440278346,0.17980159053140202,0.1854999823107645,0.1887728482015116,0.18979176233147188,0.189222319694663,0.18776704657726445,0.18609934641791515,0.1847066345014865,0.18373168771406978,0.18319072299094094,0.18275423243783817,0.18201045564383292,0.1806404208014614,0.17848401083077634,0.1757912728318938,0.1728563268603992,0.1699889556965971,0.16738076476096894,0.16495637448108738,0.1626521921783479,0.16018073286235895,0.1573294260166639,0.15412110872047644,0.15079329678973588,0.14801884411362756,0.14629602090223845,0.14584961421164472,0.1464599841077411,0.1473711006887359,0.14775619446866703,0.14667725133556922,0.14361980238630262,0.13879885949500576,0.13314959063858228,0.12834757825251306,0.1259394273386766,0.126857647733968,0.13092290602856002,0.1365861886445041,0.14140115718157542,0.1423201226300895,0.13667831341229644
0.6365310415630033,0.6626135040304888,0.6241045482458103,0.5297955640172638,0.39812707436022443,0.2522895288627348,0.11464343567948397,0.002244122340377718,-0.07586141584189145,-0.11878895526927782,-0.13195198383753368,-0.12411308528783623,-0.10417217704067455,-0.07909657702849157,-0.05300628105716432,-0.027523168747108827,-0.002939994663873057,0.02075839831376379,0.042940613743999316,0.06222151241247867,0.07690564634331601,0.08563269688230817,0.08823063446391734,0.08576037158720268,0.08028418058045476,0.07421936155480076,0.06949265987672847,0.06727469330231092,0.06756481336316456,0.06944262103360364,0.07153307676628552,0.07242509112906602,0.07144529471467943,0.06855677566760791,0.06432265358557275,0.05961524818101852,0.055147159582558426,0.051610371834466186,0.04926932336721872,0.04805971485376514,0.047697419595751515,0.047667847481314383,0.04776617634639699,0.04782637874480172,0.04779505004950331,0.04768779676715376,0.047406874068878564,0.04713105107484144,0.046993099007407,0.0471368743296258,0.04767817393855601,0.04819967988220103,0.049375395280054336,0.05102737486550502,0.05287128572420992,0.05464293579450146,0.05593276149597627,0.05710597621494009,0.05832158769577446,0.0597713935977833,0.061607697650446915,0.06382476762239997,0.06635524485054187,0.06913196932718393,0.07205273327772783,0.07499693557175535,0.0777334110343989,0.08029979785416995,0.08279446443895082,0.08541135283313946,0.08838617349306377,0.09174400910905756,0.09579982311410416,0.10059390800988008,0.10601841376348108,0.11182619183265001,0.11749544717553334,0.12285692144373062,0.12766364355544133,0.131792766350538,0.13526621017223622,0.13805798486103382,0.14059203074143725,0.1431722859505632,0.1460380466246389,0.14928616768622552,0.1526634999921122,0.15608279983295148,0.1592214803085953,0.16172832069561502,0.16330612520021479,0.16362805149494847,0.16284889833994934,0.1611900014710615,0.15900103104552032,0.15667220720789457,0.15438252119376178,0.15251578479914413,0.15119970351434756,0.15041891465188698,0.15003828921557438,0.14968536420621528,0.1493119242955602,0.14880709221909277,0.14813975058798487,0.14734996303313502,0.14634595682062387,0.14541929533746545,0.14473974293595113,0.14445540263720183,0.1446616368506957,0.14519085349094435,0.14619420496129126,0.14763113347566453,0.1494151784943173,0.15141284625233242,0.1532563591580418,0.15495836135273286,0.1563957286233619,0.15748000021544606,0.15816405565396913,0.15824763855123453,0.15798288447871592,0.15749893432959908,0.15693950886077634,0.1564284242176046,0.1558358929193437,0.15540240646107553,0.15512023747937698,0.15492152798978495,0.1546927927812401,0.1540883670794991,0.15323589726765705,0.1521004148436284,0.15070461915234998,0.14913284858877784,0.14730243210057362,0.14564434160573192,0.14436955428010506,0.14364743855491863,0.14357290439631554,0.14391986432275305,0.14486981527902926,0.146289142327155,0.14798860417450913,0.14976472021700432,0.15121494179599007,0.15250521423809205,0.15365524888278626,0.15475847410629995,0.1559565360376931,0.1571705513328623,0.15879087410700113,0.16090990582735198,0.16351363749152675,0.16647119648031675,0.1693120032345386,0.172018000614389,0.1743336356606356,0.17603850794209333,0.1769858569229404,0.17688097953349313,0.1760618501886921,0.1747277710382114,0.1731253178463134,0.17149577411872965,0.16984230280160237,0.16849219899962609,0.16746298761336417,0.16667755661869577,0.1660056913145189,0.16519198306214536,0.1643135254386933,0.16331041208542454,0.16216681616780568,0.16091640537274243,0.15947398786641384,0.15815484813017913,0.15706785919883845,0.15628419564877474,0.155827119430966,0.1554678648990176,0.15538796715271463,0.15551809248604137,0.15576435843989647,0.15602990390712998,0.15602082946042298,0.1559629363487595,0.15591297565214743,0.15596582617762447,0.156232688383294,0.15657784820487844,0.15732328563228282,0.15849778149467883,0.16003875385608535,0.1617959924520449,0.16331539095331185,0.16467394255526271,0.1657753630671691,0.16662702293113307,0.16735929652079584,0.16795005597893928,0.16900112586686636,0.17084804188029643,0.17369328682636653,0.17749744629612269,0.1816626876114722,0.18577614596401437,0.18889007816276335,0.18988133278186897,0.18763559607144956,0.18104872003989314,0.1699387114367551,0.15446847232096983,0.1354445341751829,0.11427412176628178,0.09258935838790067,0.07269982335189476,0.056555916114806225,0.04567612298385802,0.04091264746111402,0.04211132982088204,0.04883778720941772,0.05980090424109931,0.07332989507756066,0.0876762317672551,0.10109590489934027,0.11274705462228365,0.12210967866598256,0.12919614983792926,0.1344398160733962,0.1383154338136202,0.14177509266803376,0.14540462171349827,0.14951537148977856,0.15411513828267778,0.15875577883942432,0.16331704551216755,0.16745998775046797,0.17096168822586605,0.17379046049195937,0.1758995593770951,0.17786800645441508,0.1800883460373178,0.18285735256978577,0.18626469114946187,0.18989662178010763,0.1935870023221906,0.19673596603407775,0.19866047655482813,0.1987389218069644,0.1962995384329082,0.1915195678979875,0.18466743493680016,0.17631242495551255,0.16722941946467693,0.15817011121171382,0.15007000843846016,0.1434774538498276,0.1386775759906896,0.13571991712238946,0.13438293384937064,0.13460807823458207,0.13605895782100738,0.13833091842995204,0.1409817393611153,0.14349992805226883,0.14556856837408225,0.14682722727864797,0.1470558491100616,0.14624356159984114,0.14458395066926566,0.1424968128567641,0.14039607450415953,0.13857936564481363,0.13711822178821975,0.1357950153677842,0.13437432496983004,0.132566281337368,0.1303249740428846,0.12799288197659833,0.12621352500889504,0.12598910550971607,0.12798939705396975,0.1323333477102902,0.13839481570228324,0.14478621455334734,0.15001489497539972,0.15264578523863148,0.15204643911843527,0.14879674942796817,0.14461018490965305,0.14221290607836903,0.1440502999178621,0.1514892178710271,0.1640696164034076,0.17915519274969816,0.19270013374869305,0.19977126681776658,0.19608725686921494
0.9746159661601465,1.0206395699593946,0.9719201239093354,0.8422071809121252,0.6593138176423272,0.4575291839426042,0.269307153544174,0.11814445363194952,0.015175534937539953,-0.040708538446037106,-0.059557598274938145,-0.05533557004063962,-0.04135885216664167,-0.026802172796626656,-0.015640804574733592,-0.007563083839597047,-4.54723199422987e-05,0.009212874315358286,0.020862065506944923,0.03350875195635709,0.044431430595744004,0.050883828397036895,0.05126822535278017,0.04580267889827008,0.03636839194824616,0.02573225125762994,0.016496050277530486,0.01029934719749509,0.007395867049411605,0.006834725460622008,0.007033071919515843,0.006420306792833984,0.004141535377608305,0.00014537836108324467,-0.004934628788024177,-0.010168163012063981,-0.014831265668513791,-0.018522349330091607,-0.021410370148674807,-0.02409363044306014,-0.027369397943643823,-0.03205478226898152,-0.03855115617681991,-0.04691862627220498,-0.056835199632455424,-0.06767587189568547,-0.07870748770182025,-0.08898596465679391,-0.09766740579411205,-0.10410569326517696,-0.1079823458477271,-0.10996775242978679,-0.1095591337611524,-0.10766063045839351,-0.10535064347087572,-0.10351594827246602,-0.10289290372076795,-0.10281767909899354,-0.10268595630564228,-0.10168731470767281,-0.09904955069720493,-0.09432352903912085,-0.08739138820081857,-0.07854030298834873,-0.06839626971452323,-0.05777078940115317,-0.04754953106771698,-0.03825960505048188,-0.03012633896706366,-0.02301072092460498,-0.016492028105101402,-0.01013326898948699,-0.0033017185029435327,0.004361042206556261,0.01293366950880527,0.022193635344917518,0.03156880326602457,0.040572582446942396,0.04867350306457667,0.05549262154221845,0.06087929879493643,0.06483150012498667,0.06773689210759591,0.07005628964995497,0.07225681320874017,0.07468798348264795,0.07739956546521366,0.08039091963430582,0.08344631468020117,0.08625422446643935,0.08849666817035946,0.08984050666079961,0.09026661093902329,0.08991261771963362,0.08906488832790252,0.0880707260450241,0.0872320876982752,0.08672622565359255,0.08665013855042521,0.08698766092239095,0.08764478391968876,0.0885788553290832,0.08956902575237892,0.09056946630939147,0.09158750459845803,0.09264822134411253,0.09379501729126556,0.09491193516590352,0.09595650533334485,0.0968825024952831,0.0976516587685363,0.09824404376449733,0.09862840853757518,0.0988909631121239,0.09914017101066631,0.0994597219366826,0.09981775353313688,0.1002007542364685,0.1005845988625518,0.10094557315798021,0.10126778510482888,0.10143336653144286,0.10153676340903887,0.10164504954379072,0.10181856236339644,0.1020771120975683,0.102250291844994,0.1023972425412923,0.10250893087297798,0.10263183919927309,0.1028864390903077,0.10330393017660039,0.10428469025006439,0.10609032689654228,0.10887435082120046,0.11257700712905751,0.11668525696712584,0.1206944685209667,0.12368728479296531,0.12457528521868771,0.12226757516780729,0.11572276033631124,0.10465249416419348,0.08921014353605505,0.0702049800431553,0.04905571771877525,0.02746635275062868,0.007657870493128859,-0.008427291530719172,-0.019297413248796056,-0.024156139730256775,-0.023179989526394464,-0.016985401376663784,-0.0069290583891805,0.005314854791635194,0.018076204844934163,0.029827627269001823,0.03989489433790975,0.04805580953378264,0.054630061187050036,0.0603085494201251,0.06576075780223233,0.07189493474210312,0.0791769770722105,0.08767511787021179,0.09705999769758775,0.1065362408584325,0.11552717171402638,0.12334666137689396,0.1295068790407168,0.1338114459750504,0.13620079345089128,0.13724239007279246,0.1374904702909152,0.13750531765751625,0.1377212137766417,0.13819226379412136,0.13908116380084498,0.1401818765095975,0.14115451299591267,0.14163098157823298,0.14116483438340277,0.13979984251429683,0.13760978433572305,0.13482773521445282,0.13178561181842818,0.12868924568084797,0.12601432640874963,0.12396880649428865,0.1226259312043283,0.12194024205862337,0.12164991970853009,0.12177353494000719,0.1221693556433059,0.12271343733748226,0.1233097555235514,0.12378242861344166,0.12418620449674767,0.12449319811997374,0.12467094204154035,0.12467926898847945,0.1244051180133381,0.123866686357155,0.12309898870064838,0.12216988558084091,0.12116192722434231,0.12004684528633715,0.119010248322469,0.11817855737807338,0.117683590599089,0.11764458546020519,0.11799541437294442,0.1189298502773562,0.12045788620674665,0.12250719090575625,0.12491103083989968,0.12725811911321472,0.12942098705645616,0.13111262201181967,0.13208553240302037,0.1321774762195942,0.13117976409096224,0.12937818517549235,0.12698142046627467,0.12425722770699499,0.12148089425202871,0.11871504840515709,0.11630110037854804,0.11426573166854757,0.11249867928875192,0.11078431228446321,0.1086917246968741,0.10619079574191366,0.10314526985819554,0.09954577656968173,0.09553348341094837,0.09122684495935912,0.08719516742279938,0.0838381271475929,0.0814759670177916,0.08028265453743354,0.08009586837555133,0.08091959032622675,0.08245063339065593,0.08431550211415707,0.08616137085382165,0.08757913475233388,0.08868652476649107,0.08960722177059331,0.0906095277253097,0.0920400871702098,0.09406496515519028,0.09712947562554207,0.1013268266093454,0.10653189910432982,0.11240547512208889,0.11837546307722596,0.12395348621970595,0.12852210770737513,0.1315643343608726,0.13277086307396796,0.13204219411501944,0.1297211701645397,0.12622679210522447,0.1220676219029695,0.11773942264403871,0.11357459390018688,0.10994299166225108,0.10693469005402939,0.10453526439818243,0.10270798221410944,0.101384542425534,0.10073358600028688,0.10077290099015399,0.10142844355517076,0.10249024614403322,0.10355304915999423,0.10432511500790852,0.10443909906256929,0.10371516073657314,0.10227251007395702,0.10047840954484728,0.09904336888425012,0.09851154181302132,0.09912903445727547,0.10069528563981653,0.10252397127520829,0.10382743683763884,0.10380655995806445,0.10211395045778432,0.09911806120567603,0.09588111989589194,0.0940388137214605,0.09507095612894097,0.09977431158955587,0.10778881634211504,0.11739291498577312,0.12592995779117808,0.13022882376826772,0.12755632152389532
0.3085795442711841,0.3245307166911006,0.3105777997737194,0.2707113621332353,0.21344222812110053,0.14951824079608778,0.08924045542640713,0.040646221069987956,0.008066632494086625,-0.007899696124935183,-0.009543062679008554,-0.0007982008668920952,0.014438730829114692,0.03302202560439133,0.052968661229350594,0.07326097815594557,0.0932415593804218,0.11242094086664602,0.12997556151052916,0.14485255943719072,0.15606501899089967,0.1629691674992086,0.1658256101097516,0.16559535108213302,0.16373977489653704,0.1617847300468842,0.16077513241365712,0.1612700023524506,0.16307023740315837,0.16545421023482967,0.16750444110286875,0.16835760639468117,0.167735723129419,0.16579775066417857,0.16307613409148702,0.16023875493641473,0.15774648539415986,0.15593410950985817,0.15476008653303708,0.15391792851520125,0.1529730687699607,0.15143985421146358,0.14913551628959826,0.14605640471042927,0.14239638993807666,0.13846673055244874,0.13451861252328842,0.13090960993794418,0.12787345463652808,0.12554563118707326,0.12396039233493679,0.1228158081907077,0.12235673640258099,0.12240665221309925,0.12274569973532401,0.12316343246949155,0.12332802919656972,0.12335414288772109,0.12320776009081053,0.1228784376671995,0.12236647260404632,0.12158757768948686,0.12061810510370369,0.11951415470813671,0.11834267374447752,0.11716458222142566,0.11589995668185979,0.11471513311803634,0.11364737315385204,0.11272363720219393,0.111962691838805,0.11121543803399055,0.1106940769477805,0.11038980516409817,0.11026182389752148,0.11024548598322735,0.1101003376152627,0.10995336668538003,0.10971400237646524,0.10927479793231278,0.10852828012764971,0.10722468922113784,0.10553286464483928,0.10345650733007032,0.10104585663841632,0.09841080381774853,0.09556441137883233,0.09293001845968034,0.09073196917899495,0.08915008930351999,0.08829332750784732,0.08803150830713902,0.0884974591908837,0.08954275398818588,0.0909497267323274,0.0924780567616299,0.09376784212354854,0.0948581922379144,0.09568732030674176,0.09626491829856618,0.09666278601541246,0.09685343910446571,0.09713352445496433,0.09760520314374696,0.09830666341029788,0.09920327606019182,0.10000630543210966,0.10079249901341375,0.10143170700894623,0.10178931331888039,0.10174376610497117,0.10096540334055384,0.09967855627123648,0.09796454976491069,0.09596254813758465,0.09384622425304077,0.09171806146454221,0.08983406275027388,0.08825631690222163,0.08697613680743606,0.08594868240111038,0.08522402988089814,0.08474213256569885,0.08439583238229975,0.08407355333674085,0.08369267274679668,0.08320739433354418,0.08271138860001645,0.0822326897453789,0.0818006969420119,0.08143666309248296,0.0810174929276544,0.08069111354884581,0.0804364043608298,0.08021198361767568,0.07997355220055906,0.07954923336009859,0.07911775521699432,0.07874732809650588,0.07852177295230965,0.07851044130863515,0.0785728523412158,0.07883900987443523,0.07921758978057615,0.0795592332449933,0.07970588272925894,0.07940433457585941,0.07891012720493054,0.07856267795215005,0.07895757609935503,0.08090132414988273,0.08512470682134247,0.09261998120537773,0.10390189165019627,0.11892525597361579,0.13689869600809304,0.1560435481177365,0.17415742661784156,0.18834131150351346,0.19551667470610087,0.19289606786630334,0.1783366398798932,0.15126767286116055,0.11250880958867675,0.06449112103710244,0.011069067670664106,-0.04305612692451734,-0.09253687192624402,-0.13254397739712562,-0.1593285110778185,-0.17075793252497512,-0.16671386451893142,-0.1486697885829753,-0.11975100761212039,-0.08404960705661806,-0.04593985703808295,-0.00952507397740955,0.022294287659683696,0.047750235059587094,0.06638688414895917,0.07887821844880925,0.08654726154732255,0.09131473280245801,0.09488481971778355,0.09853732958014719,0.10295336210595064,0.10808488302701907,0.1136767699256082,0.11909937953182036,0.12370537858720033,0.12702850576309205,0.1287778785582975,0.12924348764653168,0.1288367554546801,0.12807093016973184,0.12740801002050198,0.12699952319576982,0.12705040067564774,0.1274124108619497,0.1277781516797305,0.12778751427791193,0.12699272032828285,0.12541103505756926,0.12311572563318876,0.12034347519435305,0.11741919652600546,0.11449013978327806,0.11198622904481115,0.10999226085449272,0.10842021777630093,0.10705087877409901,0.10541972671435063,0.10353587353190151,0.1012562625425907,0.0985595293747879,0.09555960242215694,0.09238023072586238,0.08938675825357198,0.08687840985739942,0.08507575721096146,0.0840683260702149,0.08379177621893447,0.08399697974540517,0.08452326520312983,0.08522324708988276,0.08597034326589965,0.08658906364150343,0.08705085344480067,0.08737675368715615,0.08762840684914623,0.08787236046158442,0.08800867101991046,0.08819031313446957,0.08840067070616017,0.08859490557276563,0.08872603045221925,0.08863787329995591,0.08853526751042456,0.08854037393509406,0.08882441077644623,0.08957970044285407,0.09084187036037984,0.09289627660093679,0.09575403330867895,0.09929046603207298,0.10325477770261397,0.10716163098124125,0.11080878460106929,0.11383614258582898,0.1159417837157977,0.11692985496237389,0.11659219952229542,0.1151963620027553,0.1129564358165627,0.11016118572832179,0.10713331841925411,0.10412472704820473,0.10151026555059071,0.09946154884218396,0.09806250614405079,0.09733678187613434,0.09721864977192796,0.0977757786467037,0.09892555323822971,0.1005254725893234,0.10237307770716869,0.10417066533462022,0.10574940593967556,0.10687822781064002,0.10742367602822316,0.10740937353820301,0.10698605722585637,0.10654899443734422,0.10641816669056353,0.10679869905233652,0.10769041297004685,0.1088141344866801,0.10983351883922994,0.11025808716926333,0.1096899922863158,0.10797145240189067,0.10520304143941905,0.10186597761316007,0.09844331755295656,0.09531418943212772,0.09260771988207996,0.09011553572292041,0.08756072469559312,0.08457518078274234,0.08103381659522019,0.07724398736226924,0.07392354011406976,0.0721924459892701,0.07298199977095624,0.07670303371654427,0.08292397771923786,0.09022029184280947,0.09657984819527135,0.09961496031853015,0.09730272941816885
0.4060582804417928,0.42829287830431145,0.4123792705499338,0.36381937038140344,0.2938287102013453,0.21624730811833365,0.1440216091537439,0.08673073892380903,0.048902779141804506,0.030138851759748325,0.02643633579487442,0.03206114397057562,0.041798108926762965,0.052019592149485344,0.06115860375761944,0.06930374425724499,0.0772229749478263,0.08574748836764545,0.09496378245415728,0.10416465991092747,0.11217115271961554,0.11777899646913847,0.12051317008683966,0.12064989517694788,0.11915218595381705,0.11729026355265694,0.1160875713463765,0.11622338640486343,0.11770216632840252,0.1200135891830151,0.12240937438569834,0.12413415996625052,0.12491553123197818,0.12483927032909652,0.12429520626601076,0.12376654209423227,0.12351838240360341,0.12373579900667171,0.12429205935761312,0.12487691434133162,0.1251237098027662,0.12463457210256454,0.1233581812257928,0.12137931273708813,0.11892474482664593,0.11627959630070558,0.11362548050944368,0.11124822742392933,0.10933643667492306,0.10803276165173224,0.10743548279864498,0.10731285727471457,0.1080990094165977,0.10967438845454335,0.11180699701955281,0.11420768058182579,0.11639913538577722,0.11837829439505178,0.11991892988785215,0.12082979064330632,0.12097987836500661,0.1202364660011125,0.11872389891965812,0.11659691330486104,0.1140762329952677,0.11140878898618328,0.10871796451308093,0.10631651972698197,0.1043432079515515,0.10285672086484347,0.10183769960735994,0.10106636823139124,0.10058742118802354,0.10027305608321328,0.09999726465048,0.09966369795376871,0.0990820229589962,0.09845499245995416,0.09788417485787251,0.09751044097095538,0.0974896963001775,0.09780569252748973,0.09874345360345455,0.10033669914974536,0.10251212841819451,0.1050865168421244,0.10762043938649699,0.10997140102612092,0.11180028294844457,0.11278760242328546,0.1126833373840713,0.11118337156225493,0.10849487898693642,0.10479324195361368,0.10037550486448701,0.09562167887262041,0.09078346108891894,0.08642614445794658,0.08285508481293692,0.08023226497321025,0.07856002036116952,0.0775494195633387,0.07713408729170539,0.07705088278086367,0.07705252285164806,0.07696191171108493,0.07652702692662298,0.07599144281806615,0.07550665050104205,0.07524986567292206,0.07536380306100035,0.07569955920500812,0.07645867742165255,0.07756155177448594,0.07886954480404208,0.0802268484752509,0.08146025529063142,0.08257510950236568,0.08352675195991642,0.08433345101831448,0.08508989388950146,0.08608428624116071,0.08742763749992899,0.08914811928098994,0.0911703788625872,0.09334148881219216,0.09547376326167335,0.09746031353589064,0.09916633620408849,0.10053281087467197,0.10159308373488285,0.10231960138576326,0.10303808035195333,0.10391933707852224,0.1050644242317838,0.10646859476049851,0.10784883901464855,0.10920505004727366,0.1103452075594981,0.11109637131470772,0.11134410578611416,0.1108559231709799,0.10988863887330065,0.10856649929830493,0.10702139694157052,0.1053633561523047,0.10347552615143883,0.10167203126924523,0.1001595869023837,0.09925166247077281,0.09938260651849523,0.1008678312412635,0.10446134673644732,0.11062921780548196,0.11951699467248081,0.13074234303613186,0.14304087752711256,0.15482718695157885,0.1637421441914696,0.16706395734489535,0.16210207955376846,0.14649967192681548,0.1193079654514739,0.08086784708050751,0.03316003208823477,-0.020269044046515926,-0.07485384419842095,-0.12505500797164232,-0.16565196922294956,-0.19238794252840338,-0.20264016764680032,-0.19600556218020743,-0.17379731010617752,-0.13926935218385691,-0.09687773937923501,-0.05152788743463725,-0.007990011848128677,0.03033796467241688,0.061281277379953036,0.08415544220333401,0.09958439277752583,0.10891250008681984,0.11433406577013881,0.11783113228138674,0.12097424720124623,0.12471493043545501,0.12916539087089013,0.13434568423334506,0.13981753158303353,0.14509745044696531,0.1498454680933842,0.15377089380725056,0.15724437072377778,0.16061456383745187,0.16423957152659777,0.16833641469982796,0.1727064733408927,0.17724756298920039,0.1814831156965639,0.18484524761112373,0.18682736130627173,0.18697786176697234,0.18544882403271967,0.18253756436972765,0.17875700135356387,0.1747088065522895,0.17078786969955817,0.16756712442241234,0.16520706897543444,0.16363044028654367,0.16259025179830724,0.1616089504554625,0.16061868627930836,0.15944128107623678,0.15801482814058002,0.1563914550532783,0.15463008860750696,0.15295071511080058,0.15155293078939847,0.150600538934714,0.15019265830824938,0.15036879327513644,0.1509781107261012,0.15200731489842587,0.15341847681935647,0.15510818310596014,0.1568149731071998,0.15832752283634244,0.15944310655885915,0.1600232283620699,0.16002370790367093,0.15934201803779677,0.15831613650656073,0.15717844120096164,0.15614659270484954,0.1553588817205259,0.15465858281290662,0.15411513037368632,0.15349068116917536,0.15246185545194552,0.15069405553738086,0.14775059399813809,0.14372565637877793,0.1386868888227114,0.13286953461987996,0.12664466335898503,0.12024996307956796,0.11437760161076428,0.10938910369010162,0.1054688645457362,0.10259527118058923,0.100318189442869,0.09859692228943712,0.09708774314888564,0.09549139410311892,0.09363544090535388,0.09142485833304789,0.08917932397379327,0.08713492022033105,0.08555349257604038,0.08467561063011853,0.08459112139305788,0.08552007618863641,0.08736522793209497,0.08987193579019867,0.09267586251537832,0.09529570469966941,0.09753192059792386,0.09915430799111918,0.10013166524996661,0.10067611440063813,0.10113246805265484,0.10215781066937622,0.10415941069232187,0.10727126536360933,0.11126276606526375,0.11547655908838247,0.11927525130402804,0.12187366938663989,0.12275020462302311,0.12184941772988937,0.11954190635216771,0.11678901844015684,0.11442741676378426,0.11298914433804527,0.11248039192624279,0.11228696421794772,0.11171136132305912,0.10998867269031523,0.10690204232051484,0.10311136612259622,0.10008234143614447,0.10000000456878357,0.10468141815239097,0.11492818006195789,0.1299261121413453,0.1470081994467729,0.16229337106812003,0.17126292128273604,0.17008053500226727
0.581037661859722,0.6168618403857657,0.6010054502181282,0.541613106836151,0.4544889605912454,0.358594691330384,0.2712316363814405,0.20411668139083092,0.16165465904708565,0.14136763646353034,0.13615172080104596,0.13745570307492908,0.13798237401404814,0.13366283221849845,0.12402301536624846,0.11131648354597236,0.09897500982075669,0.0898645169916601,0.08530202858828126,0.08478234113147572,0.08648124629089872,0.08819394491268417,0.08819007272465502,0.08580430623873393,0.08147229383743525,0.07634565491029136,0.07168264699100346,0.06838482019671635,0.06668295277606644,0.0661952399573958,0.066210063529684,0.06598728125973576,0.06521032803104376,0.06393881122916853,0.0625264822714351,0.06138117229049804,0.060643946482519036,0.06027015862968806,0.05985854758353742,0.05881763988457145,0.05655228105131208,0.052549838744042635,0.046770781814005964,0.0394608234448282,0.03112976262197959,0.022417259792163455,0.013860946957641727,0.006012405796519344,-0.0008383268724460895,-0.006666681450026336,-0.011717761466985168,-0.016826308165971318,-0.021946241767090046,-0.02765941713634407,-0.03438309217558777,-0.04216550150099817,-0.05084754671143142,-0.059197661164431724,-0.0661900047226555,-0.07087637038113954,-0.07261324153501117,-0.071363961360533,-0.06726953638371029,-0.0610803315299969,-0.053797707254237215,-0.04642085158008276,-0.03983796765411153,-0.03422525157732934,-0.029454422121234797,-0.025023702831935578,-0.020228461625154348,-0.014501334557517384,-0.007221007729803009,0.0017511731643657846,0.012152335998219806,0.023380322343181947,0.03451956138703224,0.044906196996775394,0.0539320698430731,0.061283885360900014,0.06698910631151823,0.07126210141329065,0.07475687673564246,0.07806499213036606,0.08166358399168726,0.0857919085680366,0.09027936258211525,0.09491771523028832,0.0992085811240179,0.10259370168683228,0.10459471082455499,0.10481982297816624,0.10337764209373504,0.10055037676079095,0.09682468729897437,0.09277952470314325,0.0888728190310599,0.08559893174086883,0.08319757868649237,0.08170075441366584,0.08096433858173153,0.0806709019048411,0.08059189613226123,0.08053050262844973,0.08038320413905847,0.08013565928357103,0.07978329009157414,0.07942404363618281,0.07916996769554348,0.0791145736779101,0.0793069799854105,0.07970512888066704,0.0802607934946434,0.08095160206093487,0.08175518799147202,0.0826370875124959,0.08348612803083998,0.0842587214311347,0.08492975995316698,0.08549571648040306,0.08596719503958132,0.08628623334273414,0.08652581652913584,0.08674518766338306,0.08699996938320068,0.0873203866499238,0.08753166500320125,0.08775668004873716,0.08801421501390641,0.0883206850651593,0.08867357826026627,0.08877849523662013,0.08884542107649494,0.08891487470024682,0.08903741235994268,0.08925142084208959,0.08943857910477479,0.08969154326923123,0.08992436655769057,0.09001251933355103,0.08982926342391291,0.08930774828316114,0.08844531294193458,0.08722337667340428,0.08567759150749824,0.08391094694728762,0.08202426786793698,0.08032591578549991,0.07901148370252989,0.07821788323573847,0.07799263047066235,0.07812629168690902,0.07865590577435749,0.07943285847869819,0.08030028225335747,0.08113121075214558,0.08169170980565166,0.08216972939818916,0.08267632717515591,0.08334456481437257,0.0842697910336288,0.08528044202481691,0.08645510161985144,0.08762864452573375,0.08858735269370069,0.08915194278473694,0.08910197486482413,0.08884482544244185,0.08895634229064793,0.09032202561639148,0.09403409453584505,0.10101586757729028,0.11236095489652463,0.12852109040160925,0.1492206640909761,0.17329717474832165,0.19850177710412384,0.22220454214172647,0.24118313856271903,0.2522120560277063,0.25256025496079826,0.24030428786597066,0.2152367041634923,0.1785609584881326,0.13300226809058807,0.08252492453434851,0.03167491356457821,-0.01451544357810728,-0.0516866541413024,-0.07659090452504869,-0.08751040589210123,-0.08460110295993958,-0.06927736530082883,-0.044381319264176086,-0.013532897177902261,0.019447323744945903,0.050920568167935984,0.07840015636990753,0.10030590139092563,0.11615367804106368,0.12640505338199304,0.1320073313909784,0.1345878367290812,0.1356184811300307,0.13629354835017984,0.1373712102078428,0.1389664299699873,0.14117101221177367,0.1436961243276279,0.1461826543302076,0.14833736703369252,0.1498419240814227,0.15091577278161727,0.15176458680856186,0.15264110003508474,0.15374222123777895,0.15495156224979595,0.15635389400803826,0.15773093943304833,0.15877059065354585,0.15914707544186535,0.1584286202261971,0.15670254134902384,0.1540752834490107,0.15081117457144724,0.1472725889647488,0.14363354330766054,0.14047717298550122,0.13802971557387994,0.13636092950325965,0.13539810248763223,0.13473250686690033,0.13446868694303643,0.13439416225735387,0.13432366977587243,0.13414364119246483,0.13368729749109978,0.13318032299642074,0.1327731192308975,0.1326302346458585,0.13288917989729743,0.13357666359230674,0.134704239880753,0.13626953517348647,0.13821474286516267,0.14041157749593047,0.14252415996095893,0.14445891054194906,0.14606043754248427,0.14723016596852995,0.1479339750945635,0.14796429974613703,0.14765400519234184,0.1471539078695787,0.14660811354468634,0.14612266827550957,0.14567136826304605,0.14536177365655412,0.1450999297032087,0.14477174451390903,0.14431136145645562,0.14367169172277133,0.14312021563004065,0.14280919520769228,0.14284572587433042,0.1432285888764075,0.14373154130347224,0.14421913712156015,0.14431913863611845,0.1436886395113423,0.14214581629635942,0.13966496959333388,0.1366761777904829,0.1335482493375179,0.13059368628153814,0.1279489464249661,0.12545091725499516,0.12298476261647937,0.12025442176350068,0.11711945946380106,0.11375207655357282,0.1105867479937104,0.10843379069632422,0.10784387692459364,0.10893919939721583,0.11124682255341123,0.11369183739225779,0.11518350533941948,0.11477280884785765,0.1123036364265936,0.10874156855324967,0.106045107751115,0.10691559003628347,0.11359270046308759,0.12703448564064035,0.14621751067459954,0.16788941294796075,0.1873411573698222,0.19914383900822707,0.1987181953349929
0.25256025496079826,0.26194471205008474,0.24457763365431434,0.2036667219570172,0.146486615389944,0.08252492453434852,0.021196490530505662,-0.029685756004199086,-0.06533947652962187,-0.08421978744442994,-0.08751040589210123,-0.07825517507105212,-0.059927661254769844,-0.03585362057171401,-0.008720013931827544,0.01944732374494591,0.04694145760338486,0.07249738727730219,0.09489452735807052,0.11308871482804993,0.12640505338199304,0.1346164412467904,0.13843392313338598,0.13911795510713698,0.13825852344238693,0.1373712102078428,0.13739462088110968,0.13886027627122385,0.14160128355607415,0.14501181706920738,0.14833736703369252,0.15083473448503573,0.1523423400515087,0.15302631656584498,0.15332770222708245,0.15374222123777895,0.15447324130040235,0.15567210062286005,0.1571335960154122,0.15844912338693215,0.15914707544186535,0.15871539229730694,0.1570858875612608,0.15438692372008497,0.15096460646335327,0.1472725889647488,0.14363354330766054,0.14047717298550122,0.13802971557387994,0.13636092950325965,0.13539810248763223,0.13473250686690033,0.13446868694303643,0.13439416225735387,0.13432366977587243,0.13414364119246483,0.13368729749109978,0.13318032299642074,0.1327731192308975,0.1326302346458585,0.13288917989729743,0.13357666359230674,0.134704239880753,0.13626953517348647,0.13821474286516267,0.14041157749593047,0.14252415996095893,0.14445891054194906,0.14606043754248427,0.14723016596852995,0.1479339750945635,0.14796429974613703,0.14765400519234184,0.1471539078695787,0.14660811354468634,0.14612266827550957,0.1452525343323309,0.14451106707866,0.14405348232579948,0.14398892242737799,0.14431136145645562,0.14410145897393667,0.14384135746429,0.14355160457149294,0.14331453721983528,0.1432285888764075,0.1428976610447855,0.1427258097309455,0.1426700765699225,0.1425654827299005,0.14214581629635942,0.14098433341329678,0.1390074265525129,0.1360909718505683,0.1323059845557587,0.1279489464249661,0.12339119077947736,0.11935167207830837,0.11629486028791236,0.11445251236344368,0.11375207655357282,0.11373137236491185,0.11397954329887416,0.11389475600250767,0.11302514709476681,0.11124682255341123,0.10873974009339493,0.10635823734735181,0.10502133197786938,0.10561867260723827,0.10874156855324968,0.11432579986402076,0.12201547019227856,0.1307496598827852,0.139202131717802,0.14621751067459954,0.151175095816581,0.1548742750708428,0.15926517471553728,0.16753818304487328,0.18369345279594945,0.21164883284696498,0.25471668764658206,0.31411649202569786,0.38838537622163816,0.47306160394695823,0.5608186294494196,0.6427173260238851,0.7090464357214793,0.7510478017124977,0.7624297550979668,0.7404041608382963,0.6865942259008706,0.6063959650468901,0.508257824941173,0.40231044264214255,0.29865972650129663,0.20624791501774833,0.13125273366349227,0.07664122410103537,0.0421911301863183,0.024946341188331105,0.02053366181831904,0.023802471402609264,0.02999421360609768,0.035510754182979436,0.03819237962276902,0.03775071001979846,0.03499343666754807,0.03145674248507507,0.028830378179640574,0.028318788648526508,0.030775488393356077,0.03612457953468673,0.04361749114720439,0.05209184723917579,0.06015037082768501,0.06691879567261537,0.07176321205082344,0.07450331163374714,0.075353316298711,0.07463348788070871,0.07306944260008612,0.07116486030250219,0.06926239124449014,0.06752451958452409,0.06580857770304023,0.06425595710811746,0.06278165582313106,0.06129137351344784,0.05969572287033719,0.05773513408810274,0.05556722639120897,0.05312778446151474,0.0503789660855539,0.04735577257627164,0.04387259415501583,0.04068351139939552,0.038036896051857776,0.036117041081670666,0.03501582228220609,0.034231334133425904,0.03439872280242271,0.03516491699660494,0.0360662827810398,0.03671398129119242,0.03664533692752611,0.036424806561259584,0.03637278451930116,0.036900729119231014,0.038412140300178754,0.04108852379697593,0.045156888713107926,0.050537706725684695,0.056935563519717826,0.06388337295743828,0.0707181929209843,0.07699918457704027,0.08231883031782578,0.08644724927840143,0.0893546056146978,0.09109628751684122,0.09205082912069619,0.09258857375598083,0.09305538454800633,0.09369490158676544,0.09449290167740647,0.09550781334756427,0.09658489763904533,0.09750256149453608,0.09803519755883308,0.09789115769024308,0.09713834266412216,0.09584166101476617,0.0941619159472527,0.09231748511932192,0.09040177414626854,0.08875676187594166,0.08754216084807408,0.08682999934854072,0.08659977267981074,0.08660555969135311,0.08686012897713102,0.08725390029828686,0.08769657838842226,0.08812667472519106,0.08836143898423357,0.08855375880139763,0.08877742381181666,0.0891194039675896,0.0896535767705714,0.09026533015895861,0.09110840334628609,0.0922054539572946,0.09354654261990682,0.09507640324936313,0.09652834921177775,0.0979107659247612,0.09911003659493288,0.10001019737333337,0.10049922972815485,0.1003169653163662,0.09957128247546078,0.09833229706508269,0.09674434164865095,0.09500136261694993,0.09314348633501586,0.09153200533349413,0.09034570315316504,0.08967621449505499,0.08950349550574502,0.08952751732838,0.08973208944297009,0.08993034255945488,0.08997124440110695,0.08978694569938986,0.08936990864778119,0.08895751930766377,0.08876716157514414,0.08905288183520771,0.0900703958930347,0.09198217152955063,0.09500035144561102,0.09908606565305438,0.1040200599302875,0.1094220206121066,0.11476299047517585,0.1196447772688752,0.12367884243225143,0.12668713664610887,0.1287736453311785,0.13026700568700317,0.13178342513659216,0.13382416707352138,0.13667087372632228,0.1402623547098702,0.14413893936800815,0.1477401440977706,0.15040637201462587,0.15172850587722933,0.1517510640885619,0.15096833686675631,0.15034447884963245,0.1507637596643852,0.15275086500694923,0.1562032888159083,0.1602862324367091,0.16382881961524193,0.1655069266634252,0.1644499378215838,0.16065551354325466,0.15506548901515196,0.1495159117069661,0.145898060408578,0.14552605513053535,0.14851407207940856,0.15344162235999406,0.15773643561685427,0.15809417543723625,0.15153397526868348
