0.5931898732349192,0.35529467428513095,-0.07828157452242321,-0.12215135567000333,-0.08462790271948857,0.05060152732107426,0.17354333796352212,0.19729340492952693,0.20336590839857033,0.19449733251761725,0.199229308082441,0.20399770035852732,0.20067025498657945,0.1960541080536332,0.1915225157736913,0.19523884974241393,0.17461895002969707,0.17313795181580025,0.18809066675128944,0.15565117992719285,0.15868030206867223,0.1537236865141148,0.15165495841797796,0.15248122127277036,0.12768621855697862,0.12481320264759556,0.12756848835986417,0.12780708122565107,0.12281622545613927,0.14247978535765404,0.13382964419858281,0.13489765458783382,0.16062527476862232,0.17434096153918902,0.18555181900634451,0.16165928652846623,0.15291524266164705,0.13351048636093432,0.1428295702662586,0.13061391685611085,0.13760491620057783,0.1379905679086259,0.13991366182562795,0.1080532856700527,0.10623782411414409,0.1181601928677866,0.14245318688657863,0.13428599815108969,0.10858874811529329,0.13733609028163143,0.12679940129518533,0.12178772242541465,0.13179576355334546,0.12964570909952453,0.12890565841886623,0.1295608713333442,0.1383870587888373,0.1227709291441218,0.14245739969256663,0.15260790082905248,0.1504879437050862,0.14694446773706557,0.15282365990166974,0.17217987680104166,0.1873352048319925,0.18332730775282827,-0.10743584561591818,-0.10501846569599799,-0.10280945737643425,0.18713003903610206,0.19027950230430088,0.19730306163062586,0.20413034351465478,0.1890331392449436,-0.09382393706418889,0.1935816496266097,0.19694031110308174,0.19333802689883467,0.19093240401889694,0.22504446538695275,0.2033216810033521,0.19368025303798028,0.21649769748693454,0.2459711115101033,0.2617293863006456,0.2936542910224243,0.299640672279077,0.3054928649247611,0.271819187349176,0.21083875743439814,0.19860563309722393,0.19300775371242482,0.18860398214847354,0.19217618840902953,0.24446077773882904,0.25852059624035206,0.36473232858251126,0.5006042503088274,0.5520304863444769,0.2894540325060258,-0.10650269814965892,-0.12652971026951143,-0.08167124552960629,-0.13491364006563564,0.12121656353962845,0.14481046732200187,0.14912840375885086,0.1640703986658711,0.1638487478687191,0.12810780336281657,0.12341712224797394,0.14164356891081162,0.15156366543486696,0.13961007438154646,0.12752839788535658,0.1289142252477948,0.12612346812826042,0.11101892752810298,0.09311962252704487,0.09824264667544493,0.0,0.0,0.0,0.0,0.0,0.0,0.0,0.0,0.0,0.0,0.0,0.0,0.0,0.0,0.0,0.0,0.0,0.0,0.0,0.0,0.0,0.0,0.0,0.0,0.0,0.0,0.0,0.0,0.0,0.0
0.5520304863444769,0.2894540325060258,-0.10650269814965892,-0.12652971026951143,-0.08167124552960629,-0.13491364006563564,0.12121656353962845,0.14481046732200187,0.14912840375885086,0.1640703986658711,0.1638487478687191,0.12810780336281657,0.12341712224797394,0.14164356891081162,0.15156366543486696,0.13961007438154646,0.12752839788535658,0.1289142252477948,0.12612346812826042,0.11101892752810298,0.09311962252704487,0.09824264667544493,0.08836832879489216,0.0485662317112139,0.05626437727848003,0.04899397408433218,0.04034622069913817,0.04527028985383475,0.03932679776550918,0.022524078647710805,0.005736023123515886,0.00798572397824455,0.01977364357787137,0.03567486175106955,0.013592442936427371,-0.004361140714525921,0.02935939150928235,0.03055247897465998,0.04540545077364971,0.042686992800847326,0.05907652044557039,0.0891484426185475,0.08265564154340128,0.08035123544098845,0.10125642316692583,0.08697351138560089,0.09591114569708302,0.08189466379004237,0.06937631858027506,0.07194220046674217,0.0719390129667031,0.06257885292993104,0.05744674446772693,0.055186988362292404,0.05308537903166721,0.05657674974158627,0.05072238137429665,0.04095655888488938,0.0517283814427017,0.032784691260103346,0.012648781473048421,0.030709534337550814,0.036713306256709294,0.025227531390454732,0.03292425337581163,0.032639090581490456,0.021655441102845983,0.028495579839888808,0.03686044211092015,0.03724191640853954,0.025564583444894016,0.01269324815738316,0.013567245051807852,0.03226009212421211,0.03617332301254788,0.033454883967491834,0.030894321242666074,0.04207210946947042,0.02759802272055752,0.03364942992572192,0.03985082463310845,0.04212516170898648,0.029604101113304655,0.043031419136904496,0.02943362404979568,0.05807673070444818,0.06783757026301863,0.049205010460711573,0.07144428941037187,0.07207314354715948,0.06738566165027893,0.06960091474189851,0.06784791169840663,0.08385257252216619,0.09316102754103828,0.0930504939070535,0.12290251601072967,0.1202317382071517,0.14071725468706184,0.16941016369965678,0.16419647729906958,0.168529165706304,0.1457254494640462,0.13652019690420594,0.12052768686166762,0.12625740426615345,0.13060590445224995,0.12540952190235696,0.1323847589390213,0.14608310822839013,0.196369097904243,0.33755447003272976,0.6022184787474785,0.603248979103958,0.10972601506578726,-0.19655012999295868,-0.1729927161127661,-0.04507371542087963,0.062259549916010765,0.1286469127780224,0.0,0.0,0.0,0.0,0.0,0.0,0.0,0.0,0.0,0.0,0.0,0.0,0.0,0.0,0.0,0.0,0.0,0.0,0.0,0.0,0.0,0.0,0.0,0.0,0.0,0.0,0.0,0.0,0.0,0.0
0.196369097904243,0.33755447003272976,0.6022184787474785,0.603248979103958,0.10972601506578726,-0.19655012999295868,-0.1729927161127661,-0.04507371542087963,0.062259549916010765,0.1286469127780224,0.14323542866059957,0.12369411156385245,0.13658714800657024,0.12623838429742837,0.13476276120100705,0.13093075524623132,0.13784093436580072,0.1378446379254532,0.13909867956460556,0.1524756219603639,0.12772747142665866,0.13956163189974535,0.099698573025781,0.10457586838253671,0.11480868001096729,0.10595205750752022,0.06985910599051705,0.04999472777469326,0.043644025444310945,0.03722609856647722,0.03889133457520414,0.02690911390434171,0.012145881661615307,0.0013932910178622293,-0.0067063803681255765,-0.002645108760495173,0.006787137117467225,-0.012363742780982574,-0.06281284243816558,-0.03590011258479869,-0.010393776732219723,0.013718061684420703,0.04188116316051958,0.06324259003589136,0.053367003940139525,0.08017765115980423,0.10158176158080547,0.1311731485488274,0.12549991402228675,0.11716977539847026,0.10890900170542528,0.09936861873100365,0.12387102423991551,0.11587168437081408,0.1256322911250292,0.13142834323217498,0.11289293039084926,0.10127081211463532,0.08977604780015797,0.11236876440316694,0.09570932869445158,0.09005548647097468,0.09133573976547521,0.0941199212028203,0.10112672151181527,0.1164325799520991,0.10472507536695726,0.07415421661083992,0.06546674804336867,0.061005620644183085,0.07842715545060984,0.08649147977605,0.09063024531999418,0.07590138436794151,0.05724319692383375,0.06181757565864645,0.07875599137506424,0.08768207187481693,0.08315946161451203,0.08827396837962746,0.09079728676690577,0.09479929956852177,0.10299121645977692,0.09363582877156372,0.08030911027011954,0.10103451089044921,0.0892522059781637,0.12101487440246843,0.14877680790154318,0.15487251400886518,0.1691734259392549,0.15907212254474543,0.17073704637573162,0.15526050549123,0.13571956817831918,0.13654874555198995,0.11155447534653758,0.11233428994417434,0.1225742074327603,0.1286761224895848,0.15507145257320634,0.20038480828322025,0.5308091935585427,0.43461883649760047,0.41976609028753353,0.02714911414836716,-0.2108360663094811,-0.1719757386138972,-0.023336835650083508,0.07074648565280496,0.11979433406125736,0.14419221765285073,0.15210107335953607,0.16662152758701096,0.13886783232231195,0.11638696470604291,0.1412923310178882,0.1334570338631525,0.1349931911250415,0.1391163647057691,0.0,0.0,0.0,0.0,0.0,0.0,0.0,0.0,0.0,0.0,0.0,0.0,0.0,0.0,0.0,0.0,0.0,0.0,0.0,0.0,0.0,0.0,0.0,0.0,0.0,0.0,0.0,0.0,0.0,0.0
0.41976609028753353,0.02714911414836716,-0.2108360663094811,-0.1719757386138972,-0.023336835650083508,0.07074648565280496,0.11979433406125736,0.14419221765285073,0.15210107335953607,0.16662152758701096,0.13886783232231195,0.11638696470604291,0.1412923310178882,0.1334570338631525,0.1349931911250415,0.1391163647057691,0.12138459284587999,0.11711685994343383,0.1236014078212197,0.1299765779350899,0.1213054363425391,0.1043819053052045,0.08192464316622305,0.07974151157667693,0.05301256778157778,0.06150034336222187,0.045443821358389494,0.03744057817803097,0.01032632127065125,0.003489308274400559,-0.01023499219571334,-0.02269743157979673,-0.02303145073281828,-0.03432381251473437,-0.019897450058343247,-0.019132307038866942,0.004653834430840723,0.041965559372151205,0.05885948518935259,0.08387009945915375,0.09799392589545465,0.10939145147044818,0.1384466453606535,0.13491553500247763,0.1314048225559112,0.13335615299447964,0.13670298035451892,0.11293014754368898,0.12452249569419517,0.12802320911322337,0.11936320427822673,0.10533851059412903,0.10768497108466726,0.11010776642871926,0.10581907279338393,0.10568736450264173,0.10292373808939553,0.08666410425840726,0.08950687126981262,0.08564659145432724,0.09274038178237472,0.07954904229559903,0.08002742759483193,0.07923410583987127,0.07580943635777208,0.0779009162181369,0.07599881474767275,0.07145876481202174,0.0724271149349499,0.06124369286804854,0.06914385292315661,0.0730338779760685,0.0810587451834226,0.07963156044543547,0.0741800921947508,0.07828102548884724,0.06612231970199663,0.0662203080209239,0.08264304867284429,0.07599525660936865,0.06935931356708204,0.07495146826277044,0.07510680174698281,0.08883193683479369,0.11340161472023684,0.12571684548106907,0.3634561452313599,0.12576798236724912,0.1243469036612422,0.35918000269562883,0.35759349392523043,0.3559021819942799,0.08516156705604233,0.07777465671218453,0.08109337536250065,0.07065007244733902,0.345232844984775,0.3425185080438715,0.19015746879273837,0.3363381365906698,0.33282334391953866,0.3289906589639199,-0.15871412899314355,-0.27735925126942385,-0.18315467525699608,-0.03771689574082292,0.3043125156676121,0.2983202521986485,0.09102502291375958,0.10350430962193857,0.27874200509235625,0.2717790289194594,0.2646439295981991,0.2573625332494879,0.24995934277459023,0.24245757426210446,0.23487919400391502,0.2272449560040352,0.2195744398705081,0.2118860889865969,0.0,0.0,0.0,0.0,0.0,0.0,0.0,0.0,0.0,0.0,0.0,0.0,0.0,0.0,0.0,0.0,0.0,0.0,0.0,0.0,0.0,0.0,0.0,0.0,0.0,0.0,0.0,0.0,0.0,0.0
0.33282334391953866,0.3289906589639199,-0.15871412899314355,-0.27735925126942385,-0.18315467525699608,-0.03771689574082292,0.3043125156676121,0.2983202521986485,0.09102502291375958,0.10350430962193857,0.27874200509235625,0.2717790289194594,0.2646439295981991,0.2573625332494879,0.24995934277459023,0.24245757426210446,0.23487919400391502,0.2272449560040352,0.2195744398705081,0.2118860889865969,0.20419724886336538,0.1965242055814328,0.1888822242351741,0.1812855872979367,0.17374763283194683,0.16628079247149477,0.1588966291127064,0.1516058742477455,0.14441846488562995,0.1373435800060068,0.13038967649619834,0.12356452452562723,0.11687524231533385,0.11032833026373595,0.1039297043930402,0.09768472908380202,0.09159824906805507,0.08567462065418764,0.07991774215934282,0.07433108352756043,0.06891771511416968,0.06368033561908219,0.05862129915363429,0.05374264142748423,0.04904610504379471,0.04453316389252142,0.04020504663309499,0.03606275925912673,0.03210710673899502,0.028338713727282232,0.02475804434303714,0.02136542101174009,0.018161042368649793,0.015145000221920233,0.012317295574493662,0.009677853704311498,0.007226538302837167,0.004963164672265574,0.002887511982100247,0.0009993345860213644,-0.0007016275998504548,-0.0022156396560677923,-0.0035429000085611616,-0.004683396597494295,-0.005636780787530644,-0.006402259020656527,-0.006978502244683945,-0.007363573192817945,-0.0075548716405508965,-0.007549097823921868,-0.0073422342661642465,-0.006929546326218217,-0.006305601850768434,-0.005464310379599062,-0.004398982420318557,-0.003102409371049442,-0.0015669647265846767,0.00021527274717328423,0.0022523731459704066,0.00455240548918942,0.007123427534347238,0.009973474276933746,0.013110545095301311,0.01654258950043139,0.020277491450579787,0.024323052191055135,0.028686971579708793,0.03337682785913121,0.038400055837055025,0.04376392343707358,0.04947550658250116,0.05554166237703518,0.06196900054684036,0.06876385310976985,0.07593224223867416,0.0834798462871386,0.09141196394753731,0.09973347651301331,0.1084488082168899,0.1175618846251081,0.12707608905956774,0.1369942170327459,0.14731842867667425,0.15805019915229987,0.16919026702842652,0.1807385806228621,0.19269424230207938,0.20505545073964832,0.2178194411379273,0.23098242342202124,0.24453951841982924,0.25848469204713354,0.27281068752212434,0.2875089556395317,0.30256958314064814,0.3179812192219879,0.33373100023214963,0.3498044726136359,0.36618551415394823,0.3828562536182252,0.0,0.0,0.0,0.0,0.0,0.0,0.0,0.0,0.0,0.0,0.0,0.0,0.0,0.0,0.0,0.0,0.0,0.0,0.0,0.0,0.0,0.0,0.0,0.0,0.0,0.0,0.0,0.0,0.0,0.0
0.6993819098001169,0.4951755158324473,-0.345245800151575,-0.34149683219403176,-0.32756497425491843,-0.31432438504882715,0.4466263892978907,0.7967790043383894,0.8081694146720745,0.8190405405694738,0.8294346979746033,0.5107010780624147,-0.23763446125179255,0.8037896592325765,0.8669769470160497,0.8755664871854504,0.8839327864615799,0.8921172085152226,0.9001566973532306,0.9080837363964137,0.9159263082820946,0.9237078552289139,0.9314472398239706,0.9391587061150881,0.9468518409138899,0.9545315352384696,0.9621979458477152,0.9698464568428395,0.9774676413353257,0.9850472232043723,0.992566038990972,1.0,0.3811810355735227,-0.07208315276754451,-0.06509497114832508,-0.058319814318797965,-0.051780607787688504,-0.04549473668136141,-0.03947466696844134,-0.03372854261756817,-0.028260757504019553,-0.02307250129152428,-0.01816227887184831,-0.01352640324913458,-0.00915946201103313,-0.005054757736884876,-0.0012047228571396926,0.0023986903997379435,0.005763644253955098,0.008898288932266242,0.011810745843204767,0.014509091903859019,0.017001344977588543,0.01929545038229263,0.02139926842914554,0.02332056295206909,0.025066990788642756,0.026646092173631147,0.028065282006845084,0.029331841957634,0.030452913368937122,0.03143549092448353,0.03228641704343545,0.033012376967500326,0.03361989450630005,0.03411532840757183,0.034504869319580175,0.03479453731394729,0.03499017993794875,0.0350974707661732,0.03512190842230944,0.035068816042692165,0.03494334115411364,0.034750455939285864,0.03449495786421471,0.03418147064262621,0.033814445513457025,0.033398162808290464,0.032936733786482,0.0324341027165731,0.03189404918343627,0.03132019060142981,0.030715984914666403,0.030084733466305302,0.02942958401958075,0.02875353391405941,0.02805943334138787,0.02734998872554265,0.02662776619333345,0.025895195121626195,0.02515457174845606,0.024408062835882278,0.023657709373105518,0.022905430309011796,0.02215302630394015,0.02140218349107788,0.020654477238480427,0.019911375903285625,0.019174244570244924,0.0184443487672299,0.017722858150889188,0.017010850156127248,0.01630931360355772,0.01561915225954312,0.014941188343877866,0.014276165980594774,0.013624754587785093,0.012987552202710055,0.012365088738857671,0.011757829171954837,0.011166176652284702,0.010590475540984386,0.010031014368307781,0.00948802871213063,0.008961703995256913,0.00845217820034713,0.007959544501541715,0.007483853812089975,0.007025117247518013,0.006583308504082949,0.0,0.0,0.0,0.0,0.0,0.0,0.0,0.0,0.0,0.0,0.0,0.0,0.0,0.0,0.0,0.0,0.0,0.0,0.0,0.0,0.0,0.0,0.0,0.0,0.0,0.0,0.0,0.0,0.0,0.0
1.0,0.3811810355735227,-0.07208315276754451,-0.06509497114832508,-0.058319814318797965,-0.051780607787688504,-0.04549473668136141,-0.03947466696844134,-0.03372854261756817,-0.028260757504019553,-0.02307250129152428,-0.01816227887184831,-0.01352640324913458,-0.00915946201103313,-0.005054757736884876,-0.0012047228571396926,0.0023986903997379435,0.005763644253955098,0.008898288932266242,0.011810745843204767,0.014509091903859019,0.017001344977588543,0.01929545038229263,0.02139926842914554,0.02332056295206909,0.025066990788642756,0.026646092173631147,0.028065282006845084,0.029331841957634,0.030452913368937122,0.03143549092448353,0.03228641704343545,0.033012376967500326,0.03361989450630005,0.03411532840757183,0.034504869319580175,0.03479453731394729,0.03499017993794875,0.0350974707661732,0.03512190842230944,0.035068816042692165,0.03494334115411364,0.034750455939285864,0.03449495786421471,0.03418147064262621,0.033814445513457025,0.033398162808290464,0.032936733786482,0.0324341027165731,0.03189404918343627,0.03132019060142981,0.030715984914666403,0.030084733466305302,0.02942958401958075,0.02875353391405941,0.02805943334138787,0.02734998872554265,0.02662776619333345,0.025895195121626195,0.02515457174845606,0.024408062835882278,0.023657709373105518,0.022905430309011796,0.02215302630394015,0.02140218349107788,0.020654477238480427,0.019911375903285625,0.019174244570244924,0.0184443487672299,0.017722858150889188,0.017010850156127248,0.01630931360355772,0.01561915225954312,0.014941188343877866,0.014276165980594774,0.013624754587785093,0.012987552202710055,0.012365088738857671,0.011757829171954837,0.011166176652284702,0.010590475540984386,0.010031014368307781,0.00948802871213063,0.008961703995256913,0.00845217820034713,0.007959544501541715,0.007483853812089975,0.007025117247518013,0.006583308504082949,0.006158366152455135,0.005750195846762169,0.005358672449300874,0.00498364207138808,0.0046249240309783335,0.004282312727815789,0.003955579437024183,0.0036444740221636598,0.003348726568896969,0.0030680489405165066,0.002802136256681117,0.0025506682968047182,0.0023133108296198835,0.002089716870517306,0.0018795278683336224,0.0016823748233206245,0.0014978793380907693,0.0013256546033826445,0.001165306320537687,0.0010164335626242102,0.0008786295761784569,0.0007514825255690614,0.0006345761820161585,0.0005274905593273784,0.0004298024984293755,0.0003410862027957315,0.0002609137268873976,0.0001888554197342639,0.00012448032579754235,6.73565452610956e-05,1.70515559070802e-05,0.0,0.0,0.0,0.0,0.0,0.0,0.0,0.0,0.0,0.0,0.0,0.0,0.0,0.0,0.0,0.0,0.0,0.0,0.0,0.0,0.0,0.0,0.0,0.0,0.0,0.0,0.0,0.0,0.0,0.0
-0.006930677605635722,0.34196187348874807,0.4124360716006309,0.17461101983220617,-0.0075126930672324965,-0.007623699230405309,-0.007725659693960034,-0.00782014776422289,0.024689256320699227,0.07350382654091449,-0.008064323091943675,-0.008133595649343808,-0.008196960266995082,0.0895383118289955,0.09220683420969128,0.09216879014689347,0.0839921244865872,0.0894087038395969,0.09755271572557589,0.10299077714241649,0.11115477036794817,0.10574455663908269,0.10848957707118605,-0.008285360291505166,0.10583714406206828,0.09228489066276827,-0.008198424795047236,0.07874412239412255,-0.008176317259557319,0.07330852260113342,0.05970195290753274,0.054226083267033785,-0.008316447397234535,-0.008405469552786511,-0.008521387083528145,0.05109591638579816,0.050922441544207886,-0.009042782920188576,-0.009277699452812193,-0.009544316652721502,0.10424828695873041,0.12836866304742728,0.14159442116923593,-0.010911161398888229,-0.011325257959146056,0.15665134778902312,-0.01223719804308654,0.1692688639249713,0.17146611473365495,-0.013793564832124752,-0.014357794794967621,0.2159545239057031,0.1854710786669231,0.1957184492897834,-0.01679687004285564,0.19172101539321332,-0.018105694415094867,0.18223733409377763,0.20056894408262935,0.1944440275301987,0.20732606661358444,0.2011844234633765,-0.022282433812030475,0.19158457088965383,0.19627270354087994,0.20637920088989387,0.19202087484231145,0.1993737767123568,-0.02691164924769191,0.20041812087058095,-0.02864652981459584,0.21219604407862105,-0.03052506717587618,0.18579207180914173,0.20105372238366254,-0.03363617436490473,0.22059241303715335,-0.035907775462459816,0.22367783973764488,-0.03832582879053143,-0.039581352075241424,0.21176880589320202,0.22949280743822523,-0.04344499874188942,0.2377760911989387,0.24737137794107175,0.2461302776360246,0.2449286495775525,0.2519246841471431,0.26440959403952013,0.2674493601520305,0.2691983665515228,0.26151103049277014,0.26068836758662417,0.22870132067120336,0.23753527870838856,0.2369347654139014,0.24047941595772698,0.24273261300987017,0.25998804293028804,0.28409023406796113,0.39245022004934466,0.49949131839698174,0.5563068009041819,0.3428518314722848,-0.05939656057380364,-0.05963088625351804,-0.05989619826432106,-0.06019902175938595,0.2124618534652912,0.22974406956146992,0.26057883593963543,0.2587893750279579,0.24203390549108525,0.2388351050903063,0.2491918396781528,0.25137027484459873,0.2630236850031656,0.26377395206369436,0.27127177846990724,0.0,0.0,0.0,0.0,0.0,0.0,0.0,0.0,0.0,0.0,0.0,0.0,0.0,0.0,0.0,0.0,0.0,0.0,0.0,0.0,0.0,0.0,0.0,0.0,0.0,0.0,0.0,0.0,0.0,0.0
0.5563068009041819,0.3428518314722848,-0.05939656057380364,-0.05963088625351804,-0.05989619826432106,-0.06019902175938595,0.2124618534652912,0.22974406956146992,0.26057883593963543,0.2587893750279579,0.24203390549108525,0.2388351050903063,0.2491918396781528,0.25137027484459873,0.2630236850031656,0.26377395206369436,0.27127177846990724,0.2515542208390645,0.24535903160370673,0.2513179123816452,0.2504044892998193,0.2330986658086829,0.24556607768426345,0.2225972265132193,0.2266539843131344,0.21153957968029885,0.20983281750657262,0.20929021368141346,0.21260764536502574,0.16136008239676727,-0.08572993537904114,0.15585655638873208,-0.09181354926288227,-0.09531803422585075,0.1317535201533087,-0.1032889774784259,-0.1077527641933758,-0.11252427330986947,0.1839421974986514,0.215301016013862,0.2165549172657614,0.22576378586553936,0.2388816306061746,0.23420448276600273,0.23077375312839157,0.24083858580209758,0.25084080754876065,0.24450460267621268,0.24629947520143267,0.2059916544442134,0.23225777648839382,0.22189126311097715,0.20207341132227674,0.2094919425893671,0.19798220105545578,0.18928943992601288,0.19157573119110813,0.2048528856109742,0.18295230563224513,0.1625557363939366,0.17762757001265728,0.14532454060853553,0.16480385764274405,0.16272817438793463,0.16626753574999462,0.1523370651676774,0.12773187561172644,0.1427093305416238,0.14837615823538883,0.15016713864196865,0.1453669950468821,0.14891654859566833,0.13229288142482676,0.13216684934921052,0.1390291962843221,0.12299671835482441,0.11666359653961653,0.12410079509477578,0.12764718887136464,0.13680541482526015,0.1298384316762862,0.1461283749869706,0.15578755547526751,0.15745015495648598,0.1619735484821129,0.167990351678905,0.18771456161027156,0.19532919973555699,0.14464306198470492,0.14430094851176462,0.16169214668976595,0.1614887841261173,0.14775053475023933,0.14898420939554327,0.13393423840342808,0.11752375762918903,0.14863071151791712,0.19328108993910503,0.3017097256959374,0.4426573373597785,0.5006535488661144,0.21761276216759531,-0.0927428701358382,-0.3272162487261811,-0.005016545450581006,0.07795217077430286,0.12271914934623049,0.1455954481623344,0.14659288195872625,0.1311554140160347,0.1468310676941036,0.11077817405351337,0.13709610391323526,0.12935970898324578,0.1419054789717876,0.13399391765779273,0.1273628992930156,0.11658524555083216,0.11796464737715404,0.1179233919219959,0.0,0.0,0.0,0.0,0.0,0.0,0.0,0.0,0.0,0.0,0.0,0.0,0.0,0.0,0.0,0.0,0.0,0.0,0.0,0.0,0.0,0.0,0.0,0.0,0.0,0.0,0.0,0.0,0.0,0.0
0.5006535488661144,0.21761276216759531,-0.0927428701358382,-0.3272162487261811,-0.005016545450581006,0.07795217077430286,0.12271914934623049,0.1455954481623344,0.14659288195872625,0.1311554140160347,0.1468310676941036,0.11077817405351337,0.13709610391323526,0.12935970898324578,0.1419054789717876,0.13399391765779273,0.1273628992930156,0.11658524555083216,0.11796464737715404,0.1179233919219959,0.11646536781653043,0.0877877105966199,0.09437121694985613,0.07102364636396362,0.054418721253545486,0.04319967326266674,0.04551699585486263,0.03828192649519324,0.022853419411650647,0.014172428726989404,-0.016283217877197272,-0.027766587929044798,-0.01212646118153839,-0.015537744779390501,-0.00811392254888857,-0.029236177882981013,-0.012343831177692312,0.019484111998844342,0.03909516135113913,0.09539700046775486,0.09060945137398042,0.09401281215416218,0.09067734175813995,0.1308673473327892,0.11408435915949085,0.12047239753134407,0.11065162884097528,0.10907791624968016,0.12662437835621507,0.12526769967393267,0.12674557333363232,0.12698890264926424,0.08797247894592423,0.0952683994741904,0.09047709379565785,0.10076632034761356,0.07724311387726282,0.08102975486580963,0.07681457931768328,0.07682318765392158,0.0756239475269522,0.08272525290809908,0.08182895617059788,0.07700978301801235,0.07370026913956479,0.07054146952336497,0.0756816045692535,0.07553703588269117,0.06874771883507157,0.07704295633008044,0.07189759970654762,0.06417446987126693,0.060661370851715184,0.0790115388465359,0.07711626500817981,0.0617623341272258,0.05060189845644378,0.06128680143693304,0.06936384045667571,0.07754388907843694,0.0885374740457796,0.09283076220886555,0.10535742207839761,0.11252805627203782,0.12520068496824896,0.1352176978790593,0.12491332479999565,0.1241587890034783,0.11936167702123925,0.13631730937381112,0.09352109846862011,0.08875270034456094,0.09076048604328243,0.09138210806040331,0.08924586074130966,0.12236793630359306,0.20974901290938822,0.6474658594908085,0.5051223214480242,0.3368525164222937,-0.08282974442901127,-0.16719729420827326,-0.11049109719487317,0.013945268683874407,0.07980817606774752,0.11019803221852706,0.10648333927008126,0.11756971793150019,0.11222732779924623,0.1203456014909702,0.11748464527010334,0.11180122280261771,0.11416794859213795,0.11236715291870303,0.12270319696183857,0.1112257722390438,0.10238737936073199,0.1029831141127416,0.09671783512654256,0.0985349261181429,0.0,0.0,0.0,0.0,0.0,0.0,0.0,0.0,0.0,0.0,0.0,0.0,0.0,0.0,0.0,0.0,0.0,0.0,0.0,0.0,0.0,0.0,0.0,0.0,0.0,0.0,0.0,0.0,0.0,0.0
0.12236793630359306,0.20974901290938822,0.6474658594908085,0.5051223214480242,0.3368525164222937,-0.08282974442901127,-0.16719729420827326,-0.11049109719487317,0.013945268683874407,0.07980817606774752,0.11019803221852706,0.10648333927008126,0.11756971793150019,0.11222732779924623,0.1203456014909702,0.11748464527010334,0.11180122280261771,0.11416794859213795,0.11236715291870303,0.12270319696183857,0.1112257722390438,0.10238737936073199,0.1029831141127416,0.09671783512654256,0.0985349261181429,0.09213824721426618,0.07617157630183997,0.06829329840270892,0.05084772028940893,0.0306267516158951,0.03207889649323469,0.026681959811595855,0.011719749545014927,-0.006016525829194299,-0.01022818251938916,-0.025362539077158543,-0.017462519767852965,-0.01640493854626764,-0.0031690617319973793,0.0005208289113396221,0.009612669202856498,0.037696173227082304,0.08206237743992595,0.09518089851192622,0.11508874801942401,0.13771766859064274,0.16714814219270271,0.15584763524767992,0.18531359582869295,0.17948927363970069,0.1614669883387674,0.15977103865934703,0.15674546556500848,0.15239035985984092,0.15757078166412178,0.15327020827666002,0.14084461609894885,0.13930606387715375,0.15408371482996455,0.1566505573847639,0.15379250694178767,0.1455035999962871,0.13585176147229733,0.13841172268893007,0.13416027657594137,0.1421036596567802,0.166307027218678,0.2977608483786966,0.5826335294142578,0.5482522799706483,0.0900187808746151,-0.1863194230886302,-0.13409330331633498,-0.0018578978184512363,0.08272599686800075,0.10065529114145426,0.10491209568365233,0.13082116920416859,0.14172113193880428,0.1158903604523493,0.11581610879118362,0.12249190372351429,0.11691069293700432,0.11402028992078596,0.10431997926261555,0.10547285805758996,0.0984695852790431,0.0805989221012926,0.08038817735083854,0.0869759020768246,0.06369408190915701,0.04314344325064675,0.03619288794666301,0.034696034299205626,0.007416594428362957,0.01819344610481773,0.005909270015845473,-0.007701977161698593,-0.01313034047126491,-0.028029515877263787,-0.022514282396377903,0.0034224228890491347,0.014476104362074109,0.04325320581561493,0.07753886735756384,0.0793118493514333,0.12328271229287847,0.13611573490040102,0.1083108786095982,0.11593522949508203,0.13183067816366856,0.12204743989382892,0.11239671254998194,0.1191815498462703,0.1043756782956937,0.0937885276341595,0.08198996571907488,0.07441514450872504,0.0941556547072801,0.09367532016033325,0.0,0.0,0.0,0.0,0.0,0.0,0.0,0.0,0.0,0.0,0.0,0.0,0.0,0.0,0.0,0.0,0.0,0.0,0.0,0.0,0.0,0.0,0.0,0.0,0.0,0.0,0.0,0.0,0.0,0.0
0.166307027218678,0.2977608483786966,0.5826335294142578,0.5482522799706483,0.0900187808746151,-0.1863194230886302,-0.13409330331633498,-0.0018578978184512363,0.08272599686800075,0.10065529114145426,0.10491209568365233,0.13082116920416859,0.14172113193880428,0.1158903604523493,0.11581610879118362,0.12249190372351429,0.11691069293700432,0.11402028992078596,0.10431997926261555,0.10547285805758996,0.0984695852790431,0.0805989221012926,0.08038817735083854,0.0869759020768246,0.06369408190915701,0.04314344325064675,0.03619288794666301,0.034696034299205626,0.007416594428362957,0.01819344610481773,0.005909270015845473,-0.007701977161698593,-0.01313034047126491,-0.028029515877263787,-0.022514282396377903,0.0034224228890491347,0.014476104362074109,0.04325320581561493,0.07753886735756384,0.0793118493514333,0.12328271229287847,0.13611573490040102,0.1083108786095982,0.11593522949508203,0.13183067816366856,0.12204743989382892,0.11239671254998194,0.1191815498462703,0.1043756782956937,0.0937885276341595,0.08198996571907488,0.07441514450872504,0.0941556547072801,0.09367532016033325,0.08384091654410306,0.07551875115820736,0.07278361644548376,0.07563526986369545,0.08135666669164456,0.08451394577090479,0.07831462002927693,0.06411509460747002,0.10982412046462904,0.08776657320113627,0.033253074949513184,0.06308695683578587,0.0658905698067678,0.06882430067931848,0.06780916681733959,0.06691515624586662,0.06613726055278239,0.07905232805458366,0.08120674072915804,0.07259442964066418,0.07494042590658923,0.09367076810699798,0.12877824359806775,0.1788969522516957,0.170674736135267,0.1828790854406308,0.157096504811565,0.14492833406202074,0.13549704752320735,0.12607370966730128,0.11257048835080165,0.09361535932253832,0.1072240902616453,0.12621746250936342,0.12884859780824015,0.15856450507460715,0.30363278028631074,0.5341551622504347,0.5064832524786337,0.10107213822927118,-0.19993455087084877,-0.1670224488173621,-0.05418420626003808,0.010917772414866177,0.07583649814738525,0.10663177946232096,0.13048290657176237,0.12974740522439737,0.1275287226675664,0.11569061741147488,0.12412634597502131,0.11481762990204157,0.13123871793101227,0.13944479427720835,0.136729426962424,0.12310192504536084,0.12301885828549705,0.12969714093257675,0.12820375735941558,0.11854545388795912,0.1020865549518057,0.11142983225739297,0.08817686533893648,0.05270538614698225,0.06342282140005585,0.053780174289317084,0.0,0.0,0.0,0.0,0.0,0.0,0.0,0.0,0.0,0.0,0.0,0.0,0.0,0.0,0.0,0.0,0.0,0.0,0.0,0.0,0.0,0.0,0.0,0.0,0.0,0.0,0.0,0.0,0.0,0.0
0.15856450507460715,0.30363278028631074,0.5341551622504347,0.5064832524786337,0.10107213822927118,-0.19993455087084877,-0.1670224488173621,-0.05418420626003808,0.010917772414866177,0.07583649814738525,0.10663177946232096,0.13048290657176237,0.12974740522439737,0.1275287226675664,0.11569061741147488,0.12412634597502131,0.11481762990204157,0.13123871793101227,0.13944479427720835,0.136729426962424,0.12310192504536084,0.12301885828549705,0.12969714093257675,0.12820375735941558,0.11854545388795912,0.1020865549518057,0.11142983225739297,0.08817686533893648,0.05270538614698225,0.06342282140005585,0.053780174289317084,0.05094525089214514,0.03590613795010424,0.014098611826415431,0.014047994571081699,0.02081652556698252,0.01539171656570598,0.012716453497200124,0.01007669663711651,0.026489848765871397,0.07282394749776078,0.11784210495421196,0.14796391783262847,0.15232483188076795,0.16895544172262145,0.19242256818395612,0.2227250638350886,0.2150395878289907,0.20196017612836734,0.20928869384578652,0.20306435455359723,0.19550477581562262,0.19611012161303398,0.20079738709872846,0.19054217644016053,0.19657319764411102,0.20529697470197467,0.19768617221740006,0.19681722135278706,0.19588474397000508,0.188082377844817,0.1801849726336607,0.1830410949724036,0.1857669044850176,0.1788358647204393,0.17445201648011507,0.28125206464737296,0.5562595148887572,0.3977601883473257,-0.09104714643333166,-0.2066328540563026,-0.15954012443155494,-0.08423224604330849,0.06276935502361396,0.13344235735579257,0.18213877612851967,0.18171681147892998,0.1715864902418139,0.16942542458087195,0.15895489046636588,0.1524179184806641,0.16477318269256186,0.1580080489941211,0.14572138636819149,0.13607839723561993,0.144034651062519,0.1424402438793902,0.12995071502183053,0.1310270551025682,0.11715905889361539,0.0965077825535757,0.08809944948927435,0.07564610317719656,0.07002372920537026,0.060376428844275486,0.0331315149848672,0.03447764037529474,0.0331848016710803,0.031978301400532115,0.0525983439941033,0.05973977051228033,0.07242592424141035,0.08659012455151616,0.11038930085695506,0.13160666266486895,0.14074130579677438,0.14187385934526983,0.1350095913051062,0.12694415595393535,0.114964998608376,0.10722468290778325,0.09557656810124507,0.0908885451405881,0.07958008274688727,0.08066745432904,0.07785283800410295,0.07656951463889305,0.0578024314881261,0.05414847991564629,0.0560994692295154,0.0,0.0,0.0,0.0,0.0,0.0,0.0,0.0,0.0,0.0,0.0,0.0,0.0,0.0,0.0,0.0,0.0,0.0,0.0,0.0,0.0,0.0,0.0,0.0,0.0,0.0,0.0,0.0,0.0,0.0
0.17445201648011507,0.28125206464737296,0.5562595148887572,0.3977601883473257,-0.09104714643333166,-0.2066328540563026,-0.15954012443155494,-0.08423224604330849,0.06276935502361396,0.13344235735579257,0.18213877612851967,0.18171681147892998,0.1715864902418139,0.16942542458087195,0.15895489046636588,0.1524179184806641,0.16477318269256186,0.1580080489941211,0.14572138636819149,0.13607839723561993,0.144034651062519,0.1424402438793902,0.12995071502183053,0.1310270551025682,0.11715905889361539,0.0965077825535757,0.08809944948927435,0.07564610317719656,0.07002372920537026,0.060376428844275486,0.0331315149848672,0.03447764037529474,0.0331848016710803,0.031978301400532115,0.0525983439941033,0.05973977051228033,0.07242592424141035,0.08659012455151616,0.11038930085695506,0.13160666266486895,0.14074130579677438,0.14187385934526983,0.1350095913051062,0.12694415595393535,0.114964998608376,0.10722468290778325,0.09557656810124507,0.0908885451405881,0.07958008274688727,0.08066745432904,0.07785283800410295,0.07656951463889305,0.0578024314881261,0.05414847991564629,0.0560994692295154,0.05550515712583516,0.05100611645555891,0.05618305297868906,0.047944500902778964,0.039870630041984025,0.05776534266191073,0.05001385123996325,0.05192710377496131,0.05399456689196457,0.06164585801534863,0.05314594198786436,0.04614783020571855,0.040647419639694364,0.0529390060866981,0.05449545080203413,0.05753592425916162,0.06477179054120924,0.06125727735597071,0.059210671161077345,0.057267760823378616,0.07307910698252135,0.07268265698264702,0.07508653885950312,0.08843276419203613,0.08962392912638954,0.10717451460158726,0.15601636213261266,0.43444035997121,0.18183391019701792,0.16693698356276496,0.15069004686551135,0.13987039482695102,0.11816484350107194,0.09506567306823874,0.07327347723240102,0.09895138654320743,0.10281353909556197,0.12015645127127843,0.14552955147128968,0.4654987803587674,0.4674882865981691,0.4692999957111162,0.18432598273221432,-0.160637192497774,-0.18803156828921416,-0.09345239546465814,0.01716540076133741,0.08407522358672835,0.09235162168697053,0.10720365205733319,0.11777963863036446,0.12952599888562633,0.14109746575229024,0.13756593322513797,0.14474916372480792,0.14635943879864763,0.14512338407433903,0.14105045512149114,0.13822403928411123,0.12578640821909623,0.11461064855017893,0.1223603136212486,0.12323537154888746,0.10501736995250464,0.08672628027476051,0.0,0.0,0.0,0.0,0.0,0.0,0.0,0.0,0.0,0.0,0.0,0.0,0.0,0.0,0.0,0.0,0.0,0.0,0.0,0.0,0.0,0.0,0.0,0.0,0.0,0.0,0.0,0.0,0.0,0.0
0.10717451460158726,0.15601636213261266,0.43444035997121,0.18183391019701792,0.16693698356276496,0.15069004686551135,0.13987039482695102,0.11816484350107194,0.09506567306823874,0.07327347723240102,0.09895138654320743,0.10281353909556197,0.12015645127127843,0.14552955147128968,0.4654987803587674,0.4674882865981691,0.4692999957111162,0.18432598273221432,-0.160637192497774,-0.18803156828921416,-0.09345239546465814,0.01716540076133741,0.08407522358672835,0.09235162168697053,0.10720365205733319,0.11777963863036446,0.12952599888562633,0.14109746575229024,0.13756593322513797,0.14474916372480792,0.14635943879864763,0.14512338407433903,0.14105045512149114,0.13822403928411123,0.12578640821909623,0.11461064855017893,0.1223603136212486,0.12323537154888746,0.10501736995250464,0.08672628027476051,0.0751575766975099,0.05265835542329523,0.04503834904083973,0.03736045293390432,0.029627747729339262,0.02048490812129075,-0.00228929237834981,-0.006094951377727649,-0.011302495089353073,-0.015192045487883814,-0.025908403854460277,-0.021714107356232287,-0.016182929253410867,0.004277802642781917,0.04103832572544748,0.057438720346367766,0.06707296949195789,0.09032586460722893,0.08510378177212703,0.10710442282892016,0.12374082062239913,0.11736588291007537,0.12194422570205858,0.11303645557014495,0.10966558153906668,0.11591363701644339,0.10869772447319698,0.1016062833339311,0.09871967562155051,0.08374446837095065,0.08792440458403196,0.07187541375749834,0.08585544837503858,0.08776320067338601,0.07352706926433844,0.06895583481335962,0.05775311730694226,0.04535369803943708,0.060281794757080114,0.061792222785202196,0.04988606995334587,0.05716137426048789,0.05237962514459836,0.045048600149961475,0.04331759579229634,0.04582814943124466,0.038997609664513655,0.04184035507961172,0.05299728231940625,0.0453029153466386,0.05135315487697707,0.046698471633053754,0.05171031087623025,0.051446186984082584,0.04997842360878572,0.05545374456289824,0.06379465159290514,0.06549049265481051,0.07004536455751381,0.06115687317910047,0.06326884808401849,0.06686933479136221,0.07059537725862267,0.07172546596617739,0.07568705320015479,0.08654901348891386,0.08664833683851556,0.10450103094489667,0.12923431547956413,0.1282433815218378,0.14362482615363342,0.1468472104571046,0.15827426608609654,0.16159707393653536,0.14050592353301675,0.1384519381541053,0.12418348637457487,0.11262769494445177,0.10784531665281454,0.10982188375894841,0.0,0.0,0.0,0.0,0.0,0.0,0.0,0.0,0.0,0.0,0.0,0.0,0.0,0.0,0.0,0.0,0.0,0.0,0.0,0.0,0.0,0.0,0.0,0.0,0.0,0.0,0.0,0.0,0.0,0.0
0.15843922153382992,0.23764555325884146,0.5245636224514142,0.5288582006014431,0.5330181216007926,-0.04973066843096272,-0.17494371280700355,-0.1414505504316861,-0.02939082055588866,0.07703461798048292,0.12486673846558441,0.15214681075392888,0.13987027688787773,0.14780852774123004,0.13794047744475582,0.13743881934768282,0.12457966840102926,0.14011653236193386,0.1405927100019437,0.1328049073362059,0.13441488045983366,0.12641180492153675,0.13596363463056593,0.12368495404561139,0.11810062432916565,0.10155543778400766,0.08627441707946394,0.07225810493371645,0.04999907877978526,0.041228594760274406,0.04322971467448288,0.026120911569945587,0.010274550171886018,-0.0029522032251833867,-0.01627689109081957,-0.00661061195692233,-0.013340998050955406,-0.03782491793994028,-0.039313179752458724,-0.023232448684831614,-0.018095380398775007,-0.004874753907996965,0.02459261779141619,0.05266422132664878,0.06305563949223561,0.0761541082834717,0.08654038493910385,0.10780991375349061,0.1291097619711546,0.12464604735221496,0.11344547341248497,0.11317590130710152,0.1306388719203184,0.14003810112633455,0.13051706203982388,0.12924866323726109,0.13352433984014123,0.12297803203092976,0.1220642436748966,0.12263960461660336,0.1233512300315908,0.1242038410278161,0.10347003587005411,0.10733274832585009,0.09912302785575973,0.10329124812637511,0.10761537066728213,0.1025892788127052,0.0882138517330918,0.0943702765221647,0.09253587659548898,0.09765051569131138,0.10292208878146358,0.08525937301992459,0.07589939616780994,0.08706369186321689,0.09837615511671355,0.09896777953348533,0.09970057292497415,0.09513741869845012,0.1002139887149114,0.10270109653947236,0.10938412249345701,0.11210752295787199,0.11086452217574853,0.10836422211338201,0.11410626606665453,0.11721646855374492,0.1299097987789733,0.16168420160343805,0.15276779668682852,0.16426939787694247,0.18123678387798164,0.1764929398732027,0.19620377790567656,0.17516035885773468,0.15273563563666157,0.1411373027391569,0.13219900402714946,0.12047011593693345,0.13173839390989153,0.15647729364539942,0.17565207823778634,0.2653025675256794,0.4634375674350077,0.611122783465134,0.4869435239273659,0.013453269345682112,-0.1560750422971014,-0.3327041228965684,-0.013908598086017299,0.0967699255626427,0.15146921497121293,0.15699710625483895,0.1554743755740188,0.1577819741036103,0.165292541733517,0.148138889443663,0.16337902609939248,0.16756200421907846,0.0,0.0,0.0,0.0,0.0,0.0,0.0,0.0,0.0,0.0,0.0,0.0,0.0,0.0,0.0,0.0,0.0,0.0,0.0,0.0,0.0,0.0,0.0,0.0,0.0,0.0,0.0,0.0,0.0,0.0
0.17565207823778634,0.2653025675256794,0.4634375674350077,0.611122783465134,0.4869435239273659,0.013453269345682112,-0.1560750422971014,-0.3327041228965684,-0.013908598086017299,0.0967699255626427,0.15146921497121293,0.15699710625483895,0.1554743755740188,0.1577819741036103,0.165292541733517,0.148138889443663,0.16337902609939248,0.16756200421907846,0.15526619507826994,0.15230817214260314,0.15054825428575144,0.14456243710140626,0.15201568865945944,0.1321688316087183,0.1203421998241596,0.10703423503209795,0.10311606420444154,0.10315964957664935,0.08136315084726635,0.06896941539504915,0.04425033769585897,0.020791164769907233,0.008102264994398398,-0.006037603296319166,-0.0012524631486739034,-0.010136310123921986,-0.025894666016574582,-0.03765743228036259,-0.03319383124530564,-0.02471745213326795,0.004083870987084436,0.03421095481361078,0.038515280842178236,0.07405774560112967,0.0973908373898797,0.10445502900186086,0.12242934627642743,0.12959640408196615,0.11917861557496714,0.13329363462572236,0.14886400095034935,0.14145336866635308,0.1450280701801326,0.1432996228049818,0.1362774482791175,0.1321195666252796,0.12947578256589,0.12971167848641652,0.1274010937412164,0.11847543825669404,0.11788055277993824,0.11611374133293524,0.12676144375237902,0.12537938365395063,0.12691100562885815,0.1191347447626011,0.11699278419444108,0.10554589052024675,0.11331725754603011,0.12129188178296763,0.11724528880814551,0.09981815078275721,0.10432247016341893,0.11853208075061004,0.13022029473245908,0.13123448902800913,0.1297200190201038,0.12023939261474634,0.11093666042224012,0.11131349098636487,0.12272168338496094,0.1370049462153372,0.13378240229242985,0.12662796766743167,0.13318954687084256,0.14123359042365466,0.1480334168122023,0.17395136357233953,0.19316957763789272,0.19888440401202362,0.2019480705457193,0.1996296193635517,0.21771968458896962,0.21409694567534948,0.19960953956478553,0.1742387796711274,0.17599511701283338,0.16546964097941108,0.16437242185456094,0.18490516866070197,0.18765644160144238,0.23372209200707073,0.34888333553424006,0.8196982922735295,0.6492062596335021,0.30731909740593166,-0.2576107267374786,-0.25513642084801547,-0.05470585735326844,0.09106417449695148,0.15910111555355952,0.18609359308593673,0.1856397136404146,0.18084418720843554,0.1839450425393577,0.1813732406832523,0.18672320557376815,0.18778229079999956,0.19271020329160576,0.17571023280580395,0.0,0.0,0.0,0.0,0.0,0.0,0.0,0.0,0.0,0.0,0.0,0.0,0.0,0.0,0.0,0.0,0.0,0.0,0.0,0.0,0.0,0.0,0.0,0.0,0.0,0.0,0.0,0.0,0.0,0.0
-0.005852484069796753,0.012134867033849991,0.06395003028313687,0.08809620153755504,0.0962999790034844,0.11639673926764595,0.11910687418117405,0.13226469684719827,0.12219599827296315,0.11819830914568384,0.11881458589182706,0.1211227195043729,0.12659343022919442,0.1308389349308038,0.11336159864521327,0.11077763544945178,0.10551713826074516,0.09611886496949096,0.10601711139338908,0.09567329175235982,0.089985165626162,0.08748947427316099,0.07354223904842679,0.061324058256533476,0.0830533302360902,0.08454415463090714,0.07751156570547955,0.07220570056158879,0.07008946209154272,0.08873461102049532,0.09884937548418407,0.09603760545828514,0.07883160555547884,0.09555533122640561,0.07737438840841354,0.08432765615298554,0.0871206856812733,0.10771521204407603,0.1138869803369546,0.09977173703434425,0.1107612646437067,0.11170075250707406,0.11283354386032007,0.1580853356001947,0.14346934181970677,0.15245071475361066,0.17623199944768064,0.18990575983276836,0.19053079530884023,0.2015254957019979,0.20383753936808305,0.21063203475815637,0.20285463341288387,0.19513284587739635,0.18891289844619022,0.18271109286565065,0.19554542850484197,0.19078296238361334,0.22990956140470536,0.2718969276201903,0.3401524889797285,0.5752402693036069,0.6695934124157802,0.4650185790168184,-0.22011250923082348,-0.21425607140427974,-0.03877987077588084,0.11740438202938924,0.19572688580700218,0.21816334663726367,0.24037140413068891,0.24771283386790122,0.26948244283072736,0.27346587287531077,0.2538079584005155,0.2573732463857097,0.24608549713790268,0.2609488039626753,0.27560020540884533,0.2871070263522637,0.2647101992708789,0.2552663665303703,0.25730319036137433,0.2547023122432862,0.25331120376866156,0.24140236971520504,0.20724704830460225,0.19769424842432254,0.17465242509402648,0.19521988358828513,0.18029793281904855,0.15183564209276462,-0.14500449030059545,-0.14641951220435978,0.10657935944316863,0.07507350729747192,0.08711265074619295,-0.15604892734122774,-0.15941223212668565,0.13562317217766068,0.15794885548715779,0.1770640392753146,0.23108019344471528,0.24680784499024583,0.2506406275578002,0.22796565637970445,0.24178593890800965,0.2716282995758591,0.26919333948982616,0.24183033040873678,0.25400170136041095,0.28230020570456804,0.24034492578896569,0.25117337765786824,0.2386533515269606,0.21891327158731044,0.20954484320516842,0.2091005094351969,0.0,0.0,0.0,0.0,0.0,0.0,0.0,0.0,0.0,0.0,0.0,0.0,0.0,0.0,0.0,0.0,0.0,0.0,0.0,0.0,0.0,0.0,0.0,0.0,0.0,0.0,0.0,0.0,0.0,0.0,0.0,0.0
0.11170075250707406,0.11283354386032007,0.1580853356001947,0.14346934181970677,0.15245071475361066,0.17623199944768064,0.18990575983276836,0.19053079530884023,0.2015254957019979,0.20383753936808305,0.21063203475815637,0.20285463341288387,0.19513284587739635,0.18891289844619022,0.18271109286565065,0.19554542850484197,0.19078296238361334,0.22990956140470536,0.2718969276201903,0.3401524889797285,0.5752402693036069,0.6695934124157802,0.4650185790168184,-0.22011250923082348,-0.21425607140427974,-0.03877987077588084,0.11740438202938924,0.19572688580700218,0.21816334663726367,0.24037140413068891,0.24771283386790122,0.26948244283072736,0.27346587287531077,0.2538079584005155,0.2573732463857097,0.24608549713790268,0.2609488039626753,0.27560020540884533,0.2871070263522637,0.2647101992708789,0.2552663665303703,0.25730319036137433,0.2547023122432862,0.25331120376866156,0.24140236971520504,0.20724704830460225,0.19769424842432254,0.17465242509402648,0.19521988358828513,0.18029793281904855,0.15183564209276462,-0.14500449030059545,-0.14641951220435978,0.10657935944316863,0.07507350729747192,0.08711265074619295,-0.15604892734122774,-0.15941223212668565,0.13562317217766068,0.15794885548715779,0.1770640392753146,0.23108019344471528,0.24680784499024583,0.2506406275578002,0.22796565637970445,0.24178593890800965,0.2716282995758591,0.26919333948982616,0.24183033040873678,0.25400170136041095,0.28230020570456804,0.24034492578896569,0.25117337765786824,0.2386533515269606,0.21891327158731044,0.20954484320516842,0.2091005094351969,0.19562902342067062,0.21893734045741675,0.1970287379214728,0.213391010441485,0.16405823893398655,0.1369095892547043,0.1641733781744197,0.16824165477040742,0.1652320115372627,0.16540330199354364,0.16436880907834261,0.1592054631561828,0.1030551394893176,0.15262086474245684,0.15852999193898423,0.15446841624056049,0.14336727687812967,0.13108588962443612,0.12787627674166224,0.13520295841089727,0.15745876431572836,0.16095951263448954,0.1222715553452791,0.15269208828718622,0.13359520855681675,0.16895436496533758,0.1782185586633312,0.17602678475570757,0.1858039939062281,0.21486503778338145,0.20608696359029122,0.19167868516328124,0.22142177920714678,0.20157836872305832,0.18339243935542987,0.20053327555354242,0.16072444279757017,0.1737859768891412,0.19137387027806216,0.1915037864391895,0.22248520519118709,0.0,0.0,0.0,0.0,0.0,0.0,0.0,0.0,0.0,0.0,0.0,0.0,0.0,0.0,0.0,0.0,0.0,0.0,0.0,0.0,0.0,0.0,0.0,0.0,0.0,0.0,0.0,0.0,0.0,0.0,0.0,0.0
0.6790068812615644,0.53882920672822,0.023729706670311306,-0.12090481707376406,-0.21289612616316803,0.11092611920303495,0.14322166689903587,0.22960683392386996,0.24560092530523905,0.2424590310695716,0.23482315219014957,0.22561828180957294,0.23827088114185188,0.2434852033997185,0.24418274816419677,0.24035484870641208,0.2744613762000322,0.24544250473428214,0.2367608157760475,0.24840262038906402,0.24813460811029084,0.23594066418628268,0.23669949870354737,0.2284254599031657,0.23160147134500808,0.22570403008730283,0.18874400073898034,0.1983153814407954,0.17091903800001032,0.16071544218941636,0.15156943797345535,-0.14211823157775028,-0.14337213493813292,0.12729108833852604,-0.1473056773645347,0.11654764151964958,-0.15313126593947482,-0.15672695661031782,0.16436649248692675,0.18339585456464533,0.25041153377728037,0.26147594029835086,0.24884635534420207,0.2828550882419387,0.30056602987027503,0.318123276697288,0.2828391235896868,0.3016519889693451,0.3013685207037994,0.2805531060557407,0.2787739098195989,0.2711608185788783,0.2753120838638174,0.2678193170262189,0.2750648838834538,0.26045741015285306,0.2518410216727239,0.23019535985221687,0.22629093792136148,0.22256946154934143,0.22929651934752568,0.23769841933474514,0.22289110418588484,0.18927881692254936,0.20716603599815878,0.18429963041661873,0.18219524975543963,0.19646627220664326,0.18611330393748252,0.17603731867118558,0.17942256402893428,0.2123813563291987,0.17679610830624556,0.1634653737979238,0.1738538817031517,0.17281368254545804,0.1500920230919569,0.1584076870448041,0.1626102411295917,0.17294716773364122,0.16891117291231172,0.1783217545691699,0.17481201170010807,0.18180628271823307,0.2095477619991258,0.22434450162872938,0.22325746923493378,0.20627545960700247,0.2202493333889584,0.21098018335361104,0.22238778863713654,0.19734213698087874,0.16804504514562726,0.1740197153911908,0.17863583877123007,0.18773199505711224,0.2159327174926555,0.2793260751036431,0.4862609470945418,0.6316872854641099,0.5500934208387717,0.04228161324388616,-0.14343366382659034,-0.2721544621098061,0.041257445076872505,0.13193796421842094,0.1800245485124349,0.19284600731767373,0.192374994289562,0.20644109662125096,0.1896492175338799,0.19032959232731672,0.1909101581680054,0.1840692216680137,0.20202494482102046,0.20230637273561486,0.1936981458635901,0.19523521421846116,0.0,0.0,0.0,0.0,0.0,0.0,0.0,0.0,0.0,0.0,0.0,0.0,0.0,0.0,0.0,0.0,0.0,0.0,0.0,0.0,0.0,0.0,0.0,0.0,0.0,0.0,0.0,0.0,0.0,0.0,0.0,0.0
0.6316872854641099,0.5500934208387717,0.04228161324388616,-0.14343366382659034,-0.2721544621098061,0.041257445076872505,0.13193796421842094,0.1800245485124349,0.19284600731767373,0.192374994289562,0.20644109662125096,0.1896492175338799,0.19032959232731672,0.1909101581680054,0.1840692216680137,0.20202494482102046,0.20230637273561486,0.1936981458635901,0.19523521421846116,0.19519759604225673,0.190651180052579,0.18598325118875386,0.1797222433664438,0.16746671170117344,0.15653010823277735,0.14397372657394591,0.13271597545459132,0.12274559485211141,0.10087039118655923,0.08758046931465227,0.07554041534427679,0.05887885192291285,0.055155615067017126,0.0453183853502664,-0.2371816131197344,-0.23878769534045527,0.04929486354190009,0.06327396641332983,0.09314586933700468,0.1330826747342201,0.15382442822587195,0.18322501325517357,0.20373883644303234,0.20953518382081526,0.24164550486781342,0.25030278598706823,0.2296730386123212,0.22078420480548933,0.22365779388895407,0.2222049924027239,0.23255430632053536,0.232756795100702,0.21843604873329525,0.2188974055890496,0.2077950830647052,0.1997874884443168,0.19928066894293792,0.1872480817671271,0.17834509988473649,0.1696524667199197,0.1611789828552124,0.1617194472624613,0.17860337857665784,0.1722963046934514,0.15891288928534916,0.15603140898527557,0.15779775479065575,0.1656794097515737,0.17089174683575392,0.16025588728804957,0.1572039589430996,0.15294885063340868,0.15920530735885796,0.16864914162984487,0.17102642104634838,0.1619402677304025,0.15749559085910736,0.1635451688146384,0.1654383503140454,0.18220657851317257,0.18748176167594718,0.18711333475610187,0.20745243748573175,0.21627029635262598,0.22234238495672873,0.2403009933142654,0.22766279649384535,0.24445647899496736,0.22769373388012024,0.2198271917491358,0.20765831593942533,0.2028835361654354,0.20108902498868364,0.20811126164659258,0.19903175665070244,0.21336785540164072,0.2774556381637839,0.5054985848786799,0.6748696665633,0.6244472533032045,-0.16861884632375804,-0.1198032240231846,-0.15906706952263694,0.07969968987421992,0.17473498847117142,0.22123584007865887,0.22799439275767308,0.22576880501911642,0.23360029986640088,0.25734870148144573,0.2545450094606243,0.23544001656667138,0.23078588502444547,0.23325726436826097,0.2428500224127111,0.24930753959248117,0.24090750765020355,0.24107375839739187,0.0,0.0,0.0,0.0,0.0,0.0,0.0,0.0,0.0,0.0,0.0,0.0,0.0,0.0,0.0,0.0,0.0,0.0,0.0,0.0,0.0,0.0,0.0,0.0,0.0,0.0,0.0,0.0,0.0,0.0,0.0,0.0
0.6748696665633,0.6244472533032045,-0.16861884632375804,-0.1198032240231846,-0.15906706952263694,0.07969968987421992,0.17473498847117142,0.22123584007865887,0.22799439275767308,0.22576880501911642,0.23360029986640088,0.25734870148144573,0.2545450094606243,0.23544001656667138,0.23078588502444547,0.23325726436826097,0.2428500224127111,0.24930753959248117,0.24090750765020355,0.24107375839739187,0.232223634733679,0.24070750744812977,0.24015350630176643,0.2378714696827127,0.22506081635021138,0.20756452012556534,0.19854680173569947,0.19213267633970726,0.19416196189819995,-0.11171086151857094,0.17075255327682523,-0.11539200159734841,-0.11783065344280758,-0.12067073426718208,-0.12390034042950812,0.18004352823850323,0.18051016734059538,0.19386029401140178,0.20548249895609638,0.2622723301398969,0.2822505572247354,0.31816828716944684,0.3378356980475137,0.34127981481367997,0.36953125761854194,0.38893074367464026,0.38924873360928086,0.363182692279932,0.35761369265220416,0.34619726968120546,0.33187665909239694,0.3439539055798256,0.3370411979152619,0.3170056105688767,0.3102151749920225,0.30496000211753754,0.2939220751282078,0.28442659682621635,0.29404862149695643,0.27738938028938215,0.27838157506772926,0.27066174753617345,0.2600834852137126,0.3110779999882394,0.502719947749628,0.7046625838002173,0.8876053863365232,0.2680399726426263,-0.2929416797247977,-0.06019373541584551,0.09053558424407142,0.18122660924412165,0.18113813698568296,0.18693733518593725,0.18106145939999857,0.17377184489318023,0.1753289216234985,0.1637738129670475,0.13472045895860257,0.12625173958015784,0.11494193464989864,0.12862129819524043,0.12043131299494417,0.12991681079578749,0.10728908022959371,0.10527197127998862,0.09897165206233392,0.09571220205483275,0.0705987681547301,0.06903079191141936,0.04707442092206399,0.031090230843026458,0.021078022003630098,0.0287532348175704,-0.0015346200208442536,-0.015600592437918913,-0.03394778311003789,-0.024356730747434507,-0.014648201140519842,0.012758061509881003,0.030044996881886294,0.035756020818241425,0.07383310663687222,0.09888510791721136,0.11677711454108637,0.13630267084866665,0.1340362995718509,0.12462817741964431,0.12126333647761355,0.10344327352579961,0.11803470335683823,0.1225708825886082,0.13609240422698538,0.11466684741997796,0.09930062848613969,0.10024562712903033,0.12335980322324472,0.12177953550537297,0.0,0.0,0.0,0.0,0.0,0.0,0.0,0.0,0.0,0.0,0.0,0.0,0.0,0.0,0.0,0.0,0.0,0.0,0.0,0.0,0.0,0.0,0.0,0.0,0.0,0.0,0.0,0.0,0.0,0.0,0.0,0.0
0.8876053863365232,0.2680399726426263,-0.2929416797247977,-0.06019373541584551,0.09053558424407142,0.18122660924412165,0.18113813698568296,0.18693733518593725,0.18106145939999857,0.17377184489318023,0.1753289216234985,0.1637738129670475,0.13472045895860257,0.12625173958015784,0.11494193464989864,0.12862129819524043,0.12043131299494417,0.12991681079578749,0.10728908022959371,0.10527197127998862,0.09897165206233392,0.09571220205483275,0.0705987681547301,0.06903079191141936,0.04707442092206399,0.031090230843026458,0.021078022003630098,0.0287532348175704,-0.0015346200208442536,-0.015600592437918913,-0.03394778311003789,-0.024356730747434507,-0.014648201140519842,0.012758061509881003,0.030044996881886294,0.035756020818241425,0.07383310663687222,0.09888510791721136,0.11677711454108637,0.13630267084866665,0.1340362995718509,0.12462817741964431,0.12126333647761355,0.10344327352579961,0.11803470335683823,0.1225708825886082,0.13609240422698538,0.11466684741997796,0.09930062848613969,0.10024562712903033,0.12335980322324472,0.12177953550537297,0.09843271693897646,0.08846506931263677,0.1021257567383571,0.10280031886068812,0.08902117130197607,0.10032550005731548,0.11034869612860801,0.10151249554189967,0.11481706025738823,0.12389622034351641,0.12874377173836024,0.13081736534083466,0.1359674316568185,0.13686347712789632,0.13496117501013935,0.13317998868417374,0.1578702977958036,0.1929120572746061,0.18703704609209001,0.19295376403727477,0.22236449133960665,0.2591455290628365,0.3018168108676664,0.3108206391966919,0.28760309178279664,0.2804718743977743,0.2630450582589779,0.26019591769231676,0.23382401079495402,0.22198026566538637,0.2085288869302467,0.219802728131123,0.22794804581335865,0.2885850406992823,0.4705130437484609,0.6360390466816037,0.5991400320701545,0.0815279124480534,-0.1714207604342964,-0.2666539676756035,-0.26570469770217026,0.12139325925242382,0.1829308366133691,0.20304098135930823,0.20078585182341482,0.2098713355533638,0.21860360846740565,0.2182167460109949,0.205801628379307,0.20334411019678064,0.20793295156671926,0.20054667701052636,0.1973101579914267,0.18945119772626617,0.16526766399721896,0.15991965947257603,0.13534273838526792,0.14134012188637596,0.13838141345490002,0.12061842203386923,0.08220226465924534,0.0729334840686306,0.05767269435573678,0.04374990376313876,0.04435272993770271,0.019947491866906836,0.0,0.0,0.0,0.0,0.0,0.0,0.0,0.0,0.0,0.0,0.0,0.0,0.0,0.0,0.0,0.0,0.0,0.0,0.0,0.0,0.0,0.0,0.0,0.0,0.0,0.0,0.0,0.0,0.0,0.0,0.0,0.0
0.5991400320701545,0.0815279124480534,-0.1714207604342964,-0.2666539676756035,-0.26570469770217026,0.12139325925242382,0.1829308366133691,0.20304098135930823,0.20078585182341482,0.2098713355533638,0.21860360846740565,0.2182167460109949,0.205801628379307,0.20334411019678064,0.20793295156671926,0.20054667701052636,0.1973101579914267,0.18945119772626617,0.16526766399721896,0.15991965947257603,0.13534273838526792,0.14134012188637596,0.13838141345490002,0.12061842203386923,0.08220226465924534,0.0729334840686306,0.05767269435573678,0.04374990376313876,0.04435272993770271,0.019947491866906836,0.001295059987738316,-0.008668809397150413,-0.018724161995933478,-0.01861205223466171,-0.027361244582812444,-0.020064502106676454,-0.006959375160888287,0.02515008309867033,0.04699072184047484,0.07615244662469085,0.09214859256741381,0.10817502618714453,0.11985345995613135,0.11694716770372839,0.14047542945991817,0.1406595251185146,0.13655033096740213,0.12669537780966833,0.13893100253556182,0.13519155867110585,0.14916995274241068,0.1501215398723975,0.13951936705692164,0.12030020512607972,0.11004487173254114,0.09997304307301504,0.09448411509731917,0.09651250944811507,0.0899540076022582,0.07774207621928728,0.07013210439840707,0.07445014364455955,0.0819126759408159,0.08520028546146985,0.08870894235296199,0.06608022747954866,0.06564347469975555,0.06396843981587139,0.06691403925162752,0.07594544626273382,0.060309061812006105,0.05954568034818762,0.07365498484231073,0.06748897393042662,0.06740720453517615,0.08512415171492246,0.0810973480240777,0.06996945474810531,0.06638272768572857,0.061547481717344116,0.06717634199688137,0.08326583040533474,0.08930949075481724,0.08676756715740201,0.08588670382935322,0.09398416226521757,0.09348070901302888,0.09901507842270744,0.09593604860181223,0.08716559588579986,0.10491470576869996,0.11109915470340403,0.12474869780496609,0.12388725031832401,0.11875654146762446,0.13570689990211127,0.16886962276562323,0.1845503142706242,0.19445244198162925,0.21320749959546356,0.2071183519626959,0.20985262222567402,0.20235581802511676,0.19632636101938883,0.1771011211328302,0.16809232214843667,0.1546349668531374,0.16160402750465258,0.16701052104376235,0.20597915962680075,0.2565193171218051,0.43137098615956887,0.7583333591417329,0.5944741772061181,0.11696307731060072,-0.15581073098562018,-0.4025484573025567,-0.008191361708859564,0.0,0.0,0.0,0.0,0.0,0.0,0.0,0.0,0.0,0.0,0.0,0.0,0.0,0.0,0.0,0.0,0.0,0.0,0.0,0.0,0.0,0.0,0.0,0.0,0.0,0.0,0.0,0.0,0.0,0.0,0.0,0.0
0.2565193171218051,0.43137098615956887,0.7583333591417329,0.5944741772061181,0.11696307731060072,-0.15581073098562018,-0.4025484573025567,-0.008191361708859564,0.10905279711823905,0.15129998676558684,0.1698247620361428,0.17928906018441182,0.18703159713138445,0.17402965239781587,0.18569644579187108,0.18543375822476782,0.1791122009417782,0.18285277911296888,0.16884136908917738,0.1561261150994516,0.14325167497882235,0.1419421959092122,0.12877372220758943,0.1315781939478709,0.12985925075131596,0.1236225165353854,0.09969269594381887,0.09029258320793862,0.08078129195348105,0.07409117764655633,0.048258126333820914,0.02525188686426726,0.0109327479349071,-0.009341770203853366,-0.01067339203294583,-0.01209718782335687,-0.01946694389636259,-0.03863529734039572,-0.03151880262599461,-0.02007379599002341,0.0059648183396011885,0.018787707655120396,0.038913166008730474,0.05610543023333238,0.08209565922510903,0.0978607680723352,0.1165956991076872,0.13099226317282975,0.14692195810839917,0.14828851016460393,0.13803307872709214,0.151314519461659,0.14860280132972475,0.14601716551386304,0.1494247890890551,0.12808025799593445,0.1303190309159927,0.12392983182268703,0.12942181300418915,0.11897585051546486,0.10431298323481682,0.09715365516129504,0.09603751875156616,0.10829058734566571,0.10901995637333772,0.11140851530185045,0.10227806854375582,0.09773935230784533,0.10218679587704133,0.11269196762780048,0.10142985948960649,0.10794072426138193,0.09707611105377079,0.09373048139336884,0.09057937370351876,0.10080049994232748,0.11413952809998056,0.10862582662863723,0.10475795209909976,0.09813785244004346,0.09022484955814632,0.1161606868354628,0.12028924112946938,0.12017753059124878,0.13046302304179636,0.15699573876280962,0.15290396581100182,0.18115079040995288,0.1904695277920306,0.1837781417874606,0.17863838829823767,0.16039266661294976,0.15538776720258596,0.14310649643269646,0.13817827033657462,0.12594230057621555,0.13713581562242763,0.1424519621149432,0.15798190871458148,0.21299638179981825,0.41145351437856686,0.5746668071822559,0.5898490535620782,0.0937850439633128,-0.19742571670365436,-0.15933186699774318,-0.03504637496192937,0.08024484652419796,0.1206487028254871,0.13742965343781838,0.15109759133280093,0.1426209124013749,0.1486172858402743,0.14419574118015724,0.14839879812347662,0.15537218988098586,0.15486748434362527,0.1498157425188531,0.0,0.0,0.0,0.0,0.0,0.0,0.0,0.0,0.0,0.0,0.0,0.0,0.0,0.0,0.0,0.0,0.0,0.0,0.0,0.0,0.0,0.0,0.0,0.0,0.0,0.0,0.0,0.0,0.0,0.0,0.0,0.0
0.5746668071822559,0.5898490535620782,0.0937850439633128,-0.19742571670365436,-0.15933186699774318,-0.03504637496192937,0.08024484652419796,0.1206487028254871,0.13742965343781838,0.15109759133280093,0.1426209124013749,0.1486172858402743,0.14419574118015724,0.14839879812347662,0.15537218988098586,0.15486748434362527,0.1498157425188531,0.14754067440252813,0.13486259872462553,0.12496163646668254,0.12369486208753884,0.13838319967979246,0.122161400509921,0.1204254137706746,0.08923763688941154,0.08424412721839607,0.0600417594277923,0.041521760180286936,0.040394785952302364,0.022972577911295033,-0.009285938142629005,-0.0256324624334373,-0.039252046279197955,-0.03550229151717243,-0.03781340653068673,-0.04032273814655645,-0.041557464243799115,-0.04296988092518991,-0.015254373053643886,0.02110662562062453,0.039774232745077714,0.05834369369227418,0.10026795273137182,0.11724041475796054,0.14882244984431497,0.173066915299122,0.1899930409479312,0.19522576795589344,0.1829246130810137,0.18971787576874075,0.1790092187444174,0.19328297600881125,0.1710449011387988,0.1767445833032858,0.16938859662693417,0.16363266030523996,0.14923558107772233,0.15256720856911915,0.16045583629386093,0.14947767383674976,0.1386778873196896,0.13977852326651136,0.12788907376308895,0.1337683607964308,0.1325245381144258,0.12855457946197493,0.12332584707740701,0.1212340093100351,0.11642279678635122,0.11914455282414962,0.11475497311424693,0.14425918641844612,0.12271694571677531,0.1072413035615886,0.13004863340751782,0.1325573571023468,0.1308734427896736,0.13963772138436992,0.14127193171139563,0.14748660324591997,0.13923759582269654,0.1472721628694502,0.1715828983451696,0.18726559433503534,0.1825954549872034,0.2044257257994904,0.22784949163733828,0.23235223856338252,0.25892623995431413,0.23286912651230757,0.22153125517659583,0.23075389197926544,0.226836385363725,0.231726958797674,0.22050951942477906,0.2180589467799005,0.23606874787283394,0.2862313394186411,0.405134023301638,0.7538429978144122,0.7567917912832086,0.33193804975333496,-0.09459173333539737,-0.40714130592487674,-0.08731495820860288,0.06383022585532035,0.1590775090008825,0.18233608392015271,0.18195122336305095,0.18722912065384661,0.19965004496381727,0.21629990599281437,0.21083202411941188,0.1964394481550553,0.1892431216349512,0.18632483815183465,0.18037202175701017,0.18603828150670346,0.0,0.0,0.0,0.0,0.0,0.0,0.0,0.0,0.0,0.0,0.0,0.0,0.0,0.0,0.0,0.0,0.0,0.0,0.0,0.0,0.0,0.0,0.0,0.0,0.0,0.0,0.0,0.0,0.0,0.0,0.0,0.0
0.2862313394186411,0.405134023301638,0.7538429978144122,0.7567917912832086,0.33193804975333496,-0.09459173333539737,-0.40714130592487674,-0.08731495820860288,0.06383022585532035,0.1590775090008825,0.18233608392015271,0.18195122336305095,0.18722912065384661,0.19965004496381727,0.21629990599281437,0.21083202411941188,0.1964394481550553,0.1892431216349512,0.18632483815183465,0.18037202175701017,0.18603828150670346,0.16964866801298462,0.15757075381608954,0.1571330954676833,0.1478384472687867,0.13701379225181837,0.13344984869890147,0.11811163542632262,0.11443326281740825,0.07408900304220811,0.054194715924195884,0.04450006651255269,0.03182549999899824,0.014707034610446123,-0.00831947055369006,-0.01821558774199851,-0.03694738322770734,-0.038151536219162556,-0.026215179204060343,-0.024559988019386556,-0.003884068150233512,0.010931253765358332,0.034545830008224865,0.06551023934158406,0.08773014338009567,0.10854246725827563,0.12063895304051482,0.11671080007886793,0.12020256781138133,0.14577138547045618,0.15535270136578536,0.15627994265029949,0.14563443861983663,0.1483217515673969,0.14824143123944464,0.14833045351891674,0.14713162975577151,0.14025808076381788,0.12771561502453843,0.10804486528707101,0.1178621612129394,0.11323719793259668,0.08245751898838734,0.0767825027401211,0.06399607206938661,0.05288705031960131,0.06542421083128948,0.07231945704179552,0.086754124083693,0.08969074776957242,0.07820064900275273,0.08157313795551176,0.07491157944507236,0.09629133142642256,0.10617023187379027,0.11040434500491114,0.10166893420889425,0.11071504634358466,0.11703661445422793,0.12355860908189081,0.12295409449098213,0.12107578713033228,0.1267047375621808,0.12372532545683781,0.13702658133526818,0.15342058160134842,0.1655766152938114,0.17641452544206773,0.19471122496021448,0.2116690513864318,0.22727621535441994,0.25030671580426694,0.23681233538511504,0.24682129059032448,0.22906055626407726,0.23476908407995875,0.2199938416826208,0.22132671717803892,0.2255663676769931,0.2253682414244402,0.24414062211425577,0.2716077544344691,0.36632296114121726,0.5560842436711078,0.6812350432775189,0.5894383930023148,-0.18504361086318957,-0.17923897918360168,-0.17373298873381313,0.13754614733438583,0.2361876096904603,0.2657223390303838,0.2671668841762246,0.2756785675705926,0.26929887258598545,0.2934337285313396,0.2968324050531355,0.2882861567487839,0.0,0.0,0.0,0.0,0.0,0.0,0.0,0.0,0.0,0.0,0.0,0.0,0.0,0.0,0.0,0.0,0.0,0.0,0.0,0.0,0.0,0.0,0.0,0.0,0.0,0.0,0.0,0.0,0.0,0.0,0.0,0.0
0.6812350432775189,0.5894383930023148,-0.18504361086318957,-0.17923897918360168,-0.17373298873381313,0.13754614733438583,0.2361876096904603,0.2657223390303838,0.2671668841762246,0.2756785675705926,0.26929887258598545,0.2934337285313396,0.2968324050531355,0.2882861567487839,0.2795137029375515,0.26026520487880916,0.25397233842805134,0.260633887043695,0.2494934010417078,0.2469076308043135,0.23676232043044698,0.2293025194358234,0.22159182354708837,0.21947952862993483,0.21270460372958924,0.18954044605169384,0.17780019921127382,-0.11688831810585344,-0.11753588326008664,0.1480298862568424,0.14674885639253307,0.14516319824483442,0.13156420519856016,0.09717139370641405,0.08006680454217975,-0.13062866250726538,-0.1336441912578092,0.08568219152522577,0.10854072046020723,0.13412941625356617,0.16979960501388555,0.19214797892190993,0.20852434444111576,0.22188412396926244,0.22493037618880143,0.23233216699067627,0.2485061165203638,0.25004266886563037,0.24135603998053487,0.22832367004773255,0.2182862669116193,0.2112610245885368,0.21458641787319582,0.21509722306801274,0.2010916179852555,0.19308514267377433,0.177909419559691,0.17754249224999324,0.18320755152381404,0.17587557935423914,0.15848375830570882,0.13836181489058896,0.14480579983156613,0.14267419659685668,0.1334366256741978,0.1434580596933374,0.1332014542135582,0.13195934627506262,0.12069595032673483,0.13456037537253765,0.13547740483964174,0.13955670370515058,0.1336177707203271,0.12644652348202826,0.1165768904046714,0.136225079834695,0.13413167404345955,0.13226029627396627,0.1247488847139708,0.12916630732080023,0.13672026835242343,0.15326257065468055,0.1626772168429578,0.17813693205860415,0.1747372925664231,0.19200985939195347,0.18308132779976352,0.1918748484054544,0.17297971545959887,0.16592378147109424,0.15165505637262805,0.15066153041038235,0.1438896256228555,0.15914819288299892,0.17884665591547128,0.20589628489113787,0.2681035212605783,0.4796777690674548,0.6385006123786089,0.524877543568747,-0.007665415393445647,-0.1683412240848855,-0.14170209220060376,0.013660564987565932,0.12786873631904797,0.18334968429228538,0.1918195209008558,0.20160530243843536,0.18780940400405524,0.20754376141891928,0.20369036498582854,0.21139205713104767,0.21453405636108785,0.20578737087381935,0.21004037391952785,0.20971065099536124,0.20478843069988734,0.22162343303335344,0.0,0.0,0.0,0.0,0.0,0.0,0.0,0.0,0.0,0.0,0.0,0.0,0.0,0.0,0.0,0.0,0.0,0.0,0.0,0.0,0.0,0.0,0.0,0.0,0.0,0.0,0.0,0.0,0.0,0.0,0.0,0.0
0.2681035212605783,0.4796777690674548,0.6385006123786089,0.524877543568747,-0.007665415393445647,-0.1683412240848855,-0.14170209220060376,0.013660564987565932,0.12786873631904797,0.18334968429228538,0.1918195209008558,0.20160530243843536,0.18780940400405524,0.20754376141891928,0.20369036498582854,0.21139205713104767,0.21453405636108785,0.20578737087381935,0.21004037391952785,0.20971065099536124,0.20478843069988734,0.22162343303335344,0.21334063195681308,0.19896524320149062,0.18287667137604258,0.18995596845008064,0.17185954991281874,0.16811134799007707,0.1655133557000571,0.13915092996869355,-0.14091782171657047,-0.14310877781372217,0.08863711472957736,0.11791335385942292,-0.15192893513339703,0.08457703971067353,0.0805695951427727,-0.1639314095813485,0.09797544733589678,0.113585332628619,0.13775133920896726,0.1690429647227861,0.17820400366234876,0.20627217851826368,0.24009876640931158,0.24310242202232718,0.24899537276347206,0.2504833461524548,0.24759319694182447,0.2506018485609848,0.24928234428618393,0.2495156932457761,0.25132376038863063,0.24008241866574268,0.22459787548035834,0.22099751003333418,0.2351562574425637,0.22315581681240274,0.20697806135325622,0.20567479961256294,0.19436257198923104,0.18769770044057194,0.18861973957551076,0.1751712400014764,0.17518594025318746,0.17256246975093792,0.17463017305637352,0.17553726194132374,0.16064422837510794,0.18706993429583513,0.17280736643609576,0.1661868015115406,0.17453236782664547,0.18173577168082564,0.1819391678052428,0.1853930211135492,0.18477319352026836,0.18154146662646276,0.19033896814469467,0.18772958258973196,0.20006837380748935,0.20391733596998085,0.2051269517461678,0.2095466842183313,0.2376697152534018,0.23822893132978892,0.24782449709377422,0.24886983169517307,0.24720870623236804,0.2413612752448792,0.23423988055451764,0.23607802938642233,0.21463829895004566,0.22555055258114162,0.22485931837199447,0.22865144878169857,0.25447714641469704,0.2920604562213137,0.4145991939567663,0.6206015185350103,0.9569011724580776,0.38515323374226945,-0.2042791640659325,-0.10848754175463836,-0.19446061535191758,0.14847791734890198,0.22324715565981015,0.2539198804839778,0.2580768601751434,0.25769101681346546,0.27326950765286073,0.2784550193500558,0.29521652879828564,0.2810847451702927,0.27706394474680124,0.2904740862201714,0.29055740747257847,0.2831665550642869,0.0,0.0,0.0,0.0,0.0,0.0,0.0,0.0,0.0,0.0,0.0,0.0,0.0,0.0,0.0,0.0,0.0,0.0,0.0,0.0,0.0,0.0,0.0,0.0,0.0,0.0,0.0,0.0,0.0,0.0,0.0,0.0
0.2920604562213137,0.4145991939567663,0.6206015185350103,0.9569011724580776,0.38515323374226945,-0.2042791640659325,-0.10848754175463836,-0.19446061535191758,0.14847791734890198,0.22324715565981015,0.2539198804839778,0.2580768601751434,0.25769101681346546,0.27326950765286073,0.2784550193500558,0.29521652879828564,0.2810847451702927,0.27706394474680124,0.2904740862201714,0.29055740747257847,0.2831665550642869,0.2887974671879317,0.2854749073870888,0.2702603629632287,0.2753612804498641,0.2744047774010604,0.2600547623097111,0.2527987860416978,0.2306533403728069,0.2170323607850597,0.20166571732913632,0.18746246487138055,0.17879512439148973,-0.12750435325073284,0.14722596347512562,-0.12906328977169187,0.12146971942691842,-0.13216411189317365,0.12345182690467163,-0.13680172113388,-0.1396700155189862,0.1778445760614118,0.20070128795225328,0.2203681448369568,0.23981070283016168,0.25759999287996077,0.27084137243899153,0.2868902320535126,0.27648874701440035,0.28653032914229287,0.2862898623912299,0.2889750313218297,0.2770381257646413,0.2753997494913408,0.269438311150573,0.26942690790522916,0.27392149419111844,0.25218718847069377,0.23792461504433302,0.22089890401824708,0.22016348471438787,0.2137653975858446,0.20025322445545393,0.18989027385459098,0.18122305751298182,0.17572608659286434,0.1792663894670114,0.1757429992486503,0.1783435415578772,0.18268106999650235,0.17411642535504213,0.15851217720583438,0.1666260900520839,0.17063615815847694,0.17054455705612498,0.1561012880017631,0.1492739372520385,0.1427398217183422,0.15992947522313591,0.1671582146540809,0.1688168927419233,0.16197315421663205,0.16126749302700172,0.16523037439470706,0.169462508320076,0.18420852307097244,0.1933516596477842,0.2247084712665076,0.21969055231033308,0.22954395676565512,0.23668334139488856,0.24402485742783578,0.25009004935176954,0.22996765045862236,0.23050439124517963,0.21799975806322983,0.21733106242023773,0.2211560881021799,0.23238285333330638,0.24513142390578174,0.27548782032661584,0.36003947963287003,0.5558751036096752,0.6667275153890047,0.5505123130791232,-0.13549123739517238,-0.13040710874546652,-0.06398290656137336,-0.12075361740717049,0.23673775040580575,0.2747958445552521,0.27606939173703343,0.27424508953785465,0.2912924596619354,0.2876717260265336,0.29413642929976785,0.29018206632319804,0.29045004986281703,0.0,0.0,0.0,0.0,0.0,0.0,0.0,0.0,0.0,0.0,0.0,0.0,0.0,0.0,0.0,0.0,0.0,0.0,0.0,0.0,0.0,0.0,0.0,0.0,0.0,0.0,0.0,0.0,0.0,0.0,0.0,0.0
0.27548782032661584,0.36003947963287003,0.5558751036096752,0.6667275153890047,0.5505123130791232,-0.13549123739517238,-0.13040710874546652,-0.06398290656137336,-0.12075361740717049,0.23673775040580575,0.2747958445552521,0.27606939173703343,0.27424508953785465,0.2912924596619354,0.2876717260265336,0.29413642929976785,0.29018206632319804,0.29045004986281703,0.2773619040515878,0.2758074595885078,0.2711343504306517,0.28090726922049414,0.2758263707866514,0.2632022664699135,0.25913103513086133,0.24309557857022282,0.23997621063371544,0.24096911752452535,0.22555349002925873,0.1995678540438685,-0.06400182857173091,-0.06432679615231444,0.1692880451584853,-0.06611434303010104,-0.06759638128589407,-0.0694778521562427,-0.07175620582174454,0.1071725387336179,0.10999258473119809,0.10074050086058368,0.09993381053823895,-0.08865268392911549,-0.09302859643077911,0.16298104387687923,0.19466633429082247,0.22026428933438152,0.2354108350242131,0.2415986938232904,0.24471283446623363,0.2491725432522532,0.2535379851486237,0.2534391303760219,0.23864678369743522,0.2223620737512525,0.23242968036135211,0.23372077053778895,0.22332378686491364,0.21150627330069113,0.20267675941638869,0.19977824280996612,0.19403691216005978,0.19718059944126307,0.19311115204673288,0.1891610225376816,0.17508800461627175,0.1626160628086647,0.1590748628751762,0.1630064108441629,0.16709401960190323,0.1581622892348584,0.16257579429179336,0.15397723860015788,0.14847827192471333,0.15193845305044248,0.1599652772773825,0.1564496846777788,0.13260418770719423,0.15139976422786788,0.1527908759580724,0.16020627080788521,0.18682261163941816,0.17844993595415162,0.18487503251830514,0.18998244796108196,0.19083607451398993,0.21525281777705402,0.24564992146976133,0.2439409108603388,0.2423328561805646,0.2598513379801953,0.24083252860572513,0.2614140009216313,0.2410333583420816,0.2353230203117339,0.20472336238230207,0.21072231998431384,0.21082911955368772,0.22113091159237463,0.2372111502695564,0.2692969285192647,0.35690364205859615,0.552725610097472,0.6780684055009557,0.5234808742253033,-0.016513842737459674,-0.32540932192286076,-0.32855311456946557,0.11024606853125668,0.20166288182713085,0.24008251557183657,0.2562837521552989,0.24882573583216727,0.23676897162550145,0.24795956708132683,0.2531279426651191,0.24936381899945304,0.23522012550913068,0.23853803363867535,0.0,0.0,0.0,0.0,0.0,0.0,0.0,0.0,0.0,0.0,0.0,0.0,0.0,0.0,0.0,0.0,0.0,0.0,0.0,0.0,0.0,0.0,0.0,0.0,0.0,0.0,0.0,0.0,0.0,0.0,0.0,0.0
0.2692969285192647,0.35690364205859615,0.552725610097472,0.6780684055009557,0.5234808742253033,-0.016513842737459674,-0.32540932192286076,-0.32855311456946557,0.11024606853125668,0.20166288182713085,0.24008251557183657,0.2562837521552989,0.24882573583216727,0.23676897162550145,0.24795956708132683,0.2531279426651191,0.24936381899945304,0.23522012550913068,0.23853803363867535,0.22711408661240953,0.24050288261958705,0.2216025711109351,0.2143588355166835,0.2056017480185149,0.18216030900393457,0.15868750524858277,0.14690646384267322,0.13950135069366307,0.13647796938639406,0.10122956495043499,0.08062374321613372,0.06441310063032199,0.04088535607917448,0.027617395222178813,0.012896410453226094,0.006976572708343317,-0.015035398165074133,-0.04434990503785583,-0.023848265833959055,-0.013565540591626986,-0.006168699434571429,0.023250269543141668,0.01905386996714834,0.04422691900894223,0.06363435096063305,0.08314616335407803,0.09838071445579391,0.10056252347565825,0.11606300432655565,0.11706751375694349,0.12115953590042251,0.12834827624973494,0.1225331156385947,0.12568912864979534,0.11292759505844648,0.10622234833612025,0.1055795406873014,0.12125611429831865,0.11225187798986905,0.11225423084105927,0.09637103299397384,0.09828856099717528,0.10482942740195536,0.11599602329426811,0.11714547119352245,0.11706590471006384,0.11136460174941437,0.11468642263280321,0.10799275869381217,0.10739181444048929,0.10995308667185869,0.1098165863439906,0.09526387687975867,0.11022600141285553,0.10344268803143684,0.09541236134875089,0.10809740320654661,0.10488074070713381,0.09747241704985295,0.10783327212392647,0.10813152743050418,0.11739804744648091,0.1092644482909494,0.11594073677039742,0.12277319122696545,0.14439699913792628,0.15590592418219476,0.1660759202183286,0.1748953149236198,0.16624238673441033,0.16646429842675098,0.15211525053877148,0.1392894212195111,0.117719688086822,0.1122856189180295,0.11564775516932078,0.11021475577520282,0.11939998580574922,0.15050704039590593,0.22109023877427547,0.40435317642800905,0.5245376882631267,0.44542439735216827,-0.04389689245974917,-0.2258618082590232,-0.1634666844817182,-0.0031614418827398696,0.10861952811803184,0.1499224620026645,0.15297860750739498,0.16173425829167642,0.15276911879264743,0.1392739458246753,0.14615452789205977,0.1426659283356207,0.14346118742370362,0.14268998990784096,0.14768157321109526,0.0,0.0,0.0,0.0,0.0,0.0,0.0,0.0,0.0,0.0,0.0,0.0,0.0,0.0,0.0,0.0,0.0,0.0,0.0,0.0,0.0,0.0,0.0,0.0,0.0,0.0,0.0,0.0,0.0,0.0,0.0,0.0
0.22109023877427547,0.40435317642800905,0.5245376882631267,0.44542439735216827,-0.04389689245974917,-0.2258618082590232,-0.1634666844817182,-0.0031614418827398696,0.10861952811803184,0.1499224620026645,0.15297860750739498,0.16173425829167642,0.15276911879264743,0.1392739458246753,0.14615452789205977,0.1426659283356207,0.14346118742370362,0.14268998990784096,0.14768157321109526,0.13793944690970425,0.1544743087335534,0.1431053279891411,0.14337726589563388,0.14357756267762986,0.13345741611533857,0.1232699482883273,0.11008734401161567,0.09391012063436337,0.07473824506901,0.05110674023545126,0.04351737199146953,0.031466366286803334,0.009094475903739309,-0.0148129592878594,-0.027077221564686754,-0.033556353717534834,-0.02399660733979823,-0.03646870275531495,-0.027030511861540523,-0.011779894148741808,0.025406296514138983,0.05378914320599794,0.09827963076799924,0.11349370188243232,0.13312842769823632,0.1498750275214983,0.16521090166781174,0.17621927775181,0.1741246595658549,0.1867625308544396,0.17313720596754156,0.16547578753952424,0.15353475370243788,0.15635924404821114,0.14466597391095742,0.14921432894814313,0.12607477494838384,0.1060052281676316,0.10511823006855553,0.10291393103916384,0.10964591915707117,0.10188435576559854,0.09573966391087285,0.09267701279783414,0.09562556737504357,0.10019165699629437,0.10491008177142441,0.09952829420034175,0.0899024410938944,0.08921054383116343,0.09305648097573471,0.09850815948041573,0.09531064880590506,0.10249801471091997,0.09077618981688708,0.09528746970055488,0.10577498835755773,0.13101957109141202,0.1256159599788823,0.12177538742174046,0.11949002001926069,0.10557114551631286,0.10929921302395,0.11748438498121423,0.12572312398272725,0.13693367741088996,0.15842708735830555,0.17261764573619653,0.17802807118169733,0.18928943810506252,0.19613586526319696,0.19122947384969646,0.18187614879823852,0.1914900377564803,0.19076329908146575,0.18553452028662942,0.1845702839527919,0.18345597501070504,0.20267212105269472,0.2509825368556852,0.37522635932645654,0.5373019528265373,0.7708650532407594,0.2997143435509236,-0.3973007508431632,-0.1618161620528775,-0.0409285881811216,0.0957180965250065,0.17199300972063233,0.19816878254490627,0.19916193059133813,0.2203906207966962,0.228190404423292,0.2255075918288534,0.2240741990707308,0.21951189580696653,0.21183465465042997,0.2142356206319786,0.0,0.0,0.0,0.0,0.0,0.0,0.0,0.0,0.0,0.0,0.0,0.0,0.0,0.0,0.0,0.0,0.0,0.0,0.0,0.0,0.0,0.0,0.0,0.0,0.0,0.0,0.0,0.0,0.0,0.0,0.0,0.0
0.2509825368556852,0.37522635932645654,0.5373019528265373,0.7708650532407594,0.2997143435509236,-0.3973007508431632,-0.1618161620528775,-0.0409285881811216,0.0957180965250065,0.17199300972063233,0.19816878254490627,0.19916193059133813,0.2203906207966962,0.228190404423292,0.2255075918288534,0.2240741990707308,0.21951189580696653,0.21183465465042997,0.2142356206319786,0.21501081409620296,0.20831308197735357,0.20147446613307765,0.1769299013426189,0.16104754827111445,0.14358282188567462,0.1435798207544843,0.13614769227339496,0.1125040848005029,0.09315545479425935,0.08396295177328326,0.07321356617562996,0.059445189718181496,0.04119534804998891,0.02139469291997723,0.002973670100331083,-0.01406633049411112,-0.023866036049098253,-0.01910036300704147,-0.018802500491861957,-0.020036706463883065,-0.012543080436177429,-0.002169037296052459,0.027206316290938087,0.06534353976284901,0.0976096332003313,0.11376469329215935,0.1284643941919354,0.12268092906515649,0.12424903089745458,0.12731990710517774,0.1333665160692235,0.12775196070960496,0.12366369151063025,0.1211082502193366,0.12009156026430376,0.1323347350683867,0.11683720768677006,0.11460831824964837,0.10368442169772298,0.10310658430444657,0.10262586508234725,0.09638623083685392,0.08585350745377424,0.06663514111999827,0.07534343312922154,0.08854689947986082,0.0901360516628713,0.07425227952829637,0.057003638875033236,0.0632846608922263,0.06233956295707492,0.06441753039781653,0.078302962402933,0.08056149835055644,0.07411892605894152,0.06043615609691031,0.07172769171941154,0.08016428188104041,0.08427685685286798,0.08406042052649677,0.07365165764148181,0.07794079591603233,0.08667030820349021,0.10276254763068483,0.13060390841484548,0.14089735879582457,0.1482794472521568,0.14688337558841147,0.14695082307327045,0.1557937856746563,0.1485050868836782,0.12800178561939243,0.10891599381094723,0.11027260670438517,0.10569726726561471,0.11274930035573502,0.118233539068752,0.13385031826516344,0.16104806054418622,0.5337102175740092,0.531297837585137,0.5286961828287108,0.25641910461272815,-0.1801167320988806,-0.2039351741327683,-0.08450918466782495,0.05808404003656433,0.13013587204849236,0.14923745060335325,0.13883716202494398,0.13409844198533513,0.13796559424808935,0.1358085587812698,0.1378926512379621,0.1369088149251684,0.13872757366410193,0.12432270121890757,0.1522844231387248,0.0,0.0,0.0,0.0,0.0,0.0,0.0,0.0,0.0,0.0,0.0,0.0,0.0,0.0,0.0,0.0,0.0,0.0,0.0,0.0,0.0,0.0,0.0,0.0,0.0,0.0,0.0,0.0,0.0,0.0,0.0,0.0
0.13385031826516344,0.16104806054418622,0.5337102175740092,0.531297837585137,0.5286961828287108,0.25641910461272815,-0.1801167320988806,-0.2039351741327683,-0.08450918466782495,0.05808404003656433,0.13013587204849236,0.14923745060335325,0.13883716202494398,0.13409844198533513,0.13796559424808935,0.1358085587812698,0.1378926512379621,0.1369088149251684,0.13872757366410193,0.12432270121890757,0.1522844231387248,0.14061279693286952,0.14203876734709614,0.13899780285001573,0.4331800900594986,0.10929685935159013,0.10754629314088802,0.11453590505636237,0.10390966161591578,0.08299386882256421,0.08401037864400933,0.060099008213805157,0.024442606733185778,0.013655313979397007,0.010165593164841311,-0.002133686332708039,-0.007131268240745734,-0.02679202907702595,-0.045003832398358944,-0.04418752207685211,-0.04337152766905505,-0.020574796542577625,0.006647034297697033,0.02806265466226124,0.3058329673274261,0.29958674057266693,0.09135285133746596,0.28744052884241134,0.28157370761684636,0.11770153720918873,0.10923505661642675,0.11559763932621248,0.10458322135453481,0.2548694803686624,0.2501412097437646,0.08747945908294158,0.08029050674245987,0.0850641677957585,0.0725188623351258,0.06316471615799883,0.2268878855454652,0.04234227435897079,0.05138909686955979,0.051936339130974604,0.21679718738832016,0.21500536017736777,0.037777869274929904,0.21232829718135351,0.03864045516124268,0.2108767615653645,0.2106146036152217,0.21066225074457046,0.21101893516513362,0.21168283577738034,0.21265107638710407,0.05575648265631227,0.04853368952880753,0.21733796031334432,0.21947675628114596,0.060801369195546635,0.05763057512755015,0.07815366690742717,0.07842811572902127,0.0701610308115923,0.23786711338283686,0.24177886365048845,0.09360145855250754,0.10964955005622458,0.10245811409403949,0.25946703548744854,0.1149600856617778,0.11119389271047644,0.09291893761471626,0.0864799761868654,0.28517138602585596,0.29063943778665313,0.29617665081137806,0.10259494080482691,0.12578400820368088,0.15483797931925194,0.31860842207307827,0.324177490917849,0.3296838753819116,0.33510140437655184,-0.17802169405336707,-0.19629860109991937,-0.12393684569294565,0.03614068869659922,0.12285965286849383,0.3646957184753283,0.36918677948852635,0.3735929164354664,0.37792750431521865,0.1654598327550318,0.386426171373591,0.39060865804698075,0.39475636814938675,0.12648196040347495,0.0,0.0,0.0,0.0,0.0,0.0,0.0,0.0,0.0,0.0,0.0,0.0,0.0,0.0,0.0,0.0,0.0,0.0,0.0,0.0,0.0,0.0,0.0,0.0,0.0,0.0,0.0,0.0,0.0,0.0,0.0,0.0
0.3296838753819116,0.33510140437655184,-0.17802169405336707,-0.19629860109991937,-0.12393684569294565,0.03614068869659922,0.12285965286849383,0.3646957184753283,0.36918677948852635,0.3735929164354664,0.37792750431521865,0.1654598327550318,0.386426171373591,0.39060865804698075,0.39475636814938675,0.12648196040347495,0.4029651045540312,0.4070313607300978,0.41107325903915565,0.10462046653944002,0.11007081443918569,0.09205532581500678,0.08864545608435109,0.08812006936205023,0.08900890762924092,0.06055178342789709,0.03642493970085007,0.019550353351257013,0.017243242483399066,0.003135815285152124,-0.003741098571655288,-0.01950407170085037,-0.03830220468278402,-0.05135379632711395,-0.04987350673405306,-0.039715861812571356,-0.015014853952972545,-0.027015205774379755,-0.0024798859198219845,0.011743799173074127,0.04349697519482544,0.06936410364902482,0.08057417297379721,0.09764531362556546,0.107412341025249,0.10403195457690326,0.12120112655528027,0.12232153586220057,0.1323021819553658,0.12333037277492921,0.12177830910194432,0.12619256066872528,0.13072566499021848,0.1236716308508036,0.12993567445505572,0.11437894152982253,0.10629880356897509,0.11888284131032793,0.11552597297169045,0.10502123005683046,0.11373475974294077,0.10798873198149074,0.10243240463419773,0.10878554673523759,0.11826477296959163,0.11915720521062598,0.13343228617248035,0.12594435954757704,0.1245195028703622,0.13794499620825365,0.13253773821487155,0.13905081326425048,0.15308925643515459,0.13364554650376148,0.13343776108417835,0.1612490763045555,0.15410275344913832,0.17057262623787767,0.171111970266923,0.1674298137372209,0.1639119570801625,0.16787231246195186,0.1822305491631851,0.2011186504512513,0.21573873955691208,0.22022088300155834,0.23505460856781765,0.24118753300150067,0.25910690770777706,0.24779085159263747,0.24676228233427827,0.24135732430482815,0.23155561248441212,0.23490926836982323,0.23967976684097597,0.25023662709279193,0.27241264436329915,0.306181464939627,0.43352594179436826,0.576799682821243,0.6349225372132095,0.3325390115738551,-0.3040278270661115,-0.29654818710951586,0.0239964545893065,0.19192114459524137,0.25996476193794704,0.28086522604135883,0.279534142108727,0.27355933880746747,0.28638514490204886,0.28726896700843574,0.29232996195897387,0.28839636140235786,0.29304889861822936,0.2872550038559027,0.2856635542848376,0.2824193486123032,0.0,0.0,0.0,0.0,0.0,0.0,0.0,0.0,0.0,0.0,0.0,0.0,0.0,0.0,0.0,0.0,0.0,0.0,0.0,0.0,0.0,0.0,0.0,0.0,0.0,0.0,0.0,0.0,0.0,0.0,0.0,0.0
0.306181464939627,0.43352594179436826,0.576799682821243,0.6349225372132095,0.3325390115738551,-0.3040278270661115,-0.29654818710951586,0.0239964545893065,0.19192114459524137,0.25996476193794704,0.28086522604135883,0.279534142108727,0.27355933880746747,0.28638514490204886,0.28726896700843574,0.29232996195897387,0.28839636140235786,0.29304889861822936,0.2872550038559027,0.2856635542848376,0.2824193486123032,0.2760591805536194,0.2782987017048305,0.2642403223175574,0.2631706155017225,0.2604405999074121,0.2531157738671615,0.24558270572021018,0.23343985157528307,0.21374891406951768,0.1850349030827339,0.1751112485889977,0.15174700326828636,0.1442182708058479,0.11150562293875557,0.08581263240976844,0.07151730003665578,-0.18328582976561697,0.03019266374458526,-0.18430437490439966,-0.18533608810970498,0.10326875605800055,0.13676183307351628,0.17439077069336423,0.21033263887361492,0.23876363561648498,0.2480010094932336,0.2629726763054617,0.26467107859149824,0.2663057817489884,0.27962055337824326,0.2753525451763224,0.2667072695538022,0.25663754106494724,0.24663036628573373,0.2454938408141362,0.24446113379300854,0.2362286613379409,0.2208139894685585,0.2055558752708841,0.1919340739932293,0.20192995529170096,0.1974804770324626,0.194707141783711,0.2053370413854352,0.18544626534816452,0.16872702192008407,0.17276137325670313,0.18144762571378278,0.17282532407245463,0.180583134669472,0.16664961205986825,0.1661761299800436,0.17184347010205453,0.18072500654312992,0.18403535643538485,0.18323955437948714,0.19005303589290806,0.18690083145653058,0.19135440789263738,0.1975527064483009,0.19963371159855392,0.19173442005489683,0.18410004922162096,0.21040644890197027,0.22524692853413925,0.24032824875976924,0.2614981462180956,0.27410051371993854,0.2825161043306177,0.29405324949676537,0.29405175145537993,0.2751723143869158,0.2725439310293541,0.24660602172012233,0.23248484061597377,0.23748039444667796,0.24692441088868902,0.2900816634747129,0.39914463999928285,0.5667635679162124,0.6508550302975606,0.4214643098810985,-0.09069011420509093,-0.08457831369360945,-0.043505830338297385,-0.07293576493246574,-0.06744276557606704,0.22778184160657736,-0.057163233856664226,0.2449035273925315,0.25090485650257405,-0.04355307473127983,0.24460616277807323,-0.03569186419594559,0.2549152152846935,-0.028786966542540177,-0.025684066557347823,0.0,0.0,0.0,0.0,0.0,0.0,0.0,0.0,0.0,0.0,0.0,0.0,0.0,0.0,0.0,0.0,0.0,0.0,0.0,0.0,0.0,0.0,0.0,0.0,0.0,0.0,0.0,0.0,0.0,0.0,0.0,0.0
-0.03164017849508263,0.285565344960269,0.39188353010960963,0.6028834366695209,0.6981349326970815,0.41597431550589037,-0.03111421051270994,-0.031029282599467096,-0.03097472160535815,-0.03095844352199135,0.18785368491253499,0.22584039311781332,0.21620512223099433,0.23823330283749086,0.2570323592858225,0.24088010601386364,0.22782785992680854,-0.03268816075475248,0.23635944995201008,-0.03385908751052965,0.24132893823776766,-0.03544844884748094,0.26171402890878237,0.2384277567957369,-0.038708067939291976,0.22002508615035718,-0.04151086313792708,-0.0431095509840663,0.2184019232761242,-0.04669475825306461,0.17016756660073543,0.16490661784269506,0.15636941009801522,0.150906189315588,-0.057629524545964525,0.14288299795522166,0.10862378374173925,-0.06524942206134442,0.12555456455921374,0.12919656810739316,-0.07333756369966656,0.190342084651764,0.24471036199966342,0.2610533607885959,0.321851674746985,0.3145323451005097,0.3691467698904498,0.3778761803061886,0.33914793387486936,0.3481207270467369,0.32392880083163994,0.309396324614681,0.32673056997380984,0.30616140508515355,0.30478031470674694,0.3067308839046135,0.29456938321526854,0.29525268710297303,0.2786477345794302,0.24157842906779334,0.2617426027772009,0.272529932882609,0.28344673798681425,0.28338269587980053,0.29928504218828905,0.2819816454846667,0.42333905336214955,0.6297800904775205,0.5936437300211418,-0.1084969195562931,-0.10812830845678574,-0.10776913975740217,-0.10742259617093307,0.18787543445391985,0.33412083679762694,0.3249867694734005,0.342853805214471,0.31954597260657414,0.3327783237363916,0.3016852501672942,0.3277654017834977,0.34442211348191304,0.3294592189146068,0.3352109891359985,0.3077620758328027,0.3168871236156773,0.33086863809709405,0.28468593726728325,0.29409681635781404,0.28932014370223597,0.28620601105847804,0.26254408851332334,0.2547968683570752,0.2629523457171014,0.20453612908383495,-0.08221701921074322,0.1828862734777794,-0.07849942552856262,0.19609688437243733,-0.07483526773899711,0.1965542457472955,-0.07123891722244803,0.2508720538674365,0.2891271741485096,0.0,0.0,0.0,0.0,0.0,0.0,0.0,0.0,0.0,0.0,0.0,0.0,0.0,0.0,0.0,0.0,0.0,0.0,0.0,0.0,0.0,0.0,0.0,0.0,0.0,0.0,0.0,0.0,0.0,0.0,0.0,0.0,0.0,0.0,0.0,0.0,0.0,0.0,0.0,0.0,0.0,0.0,0.0,0.0,0.0,0.0
0.6297800904775205,0.5936437300211418,-0.1084969195562931,-0.10812830845678574,-0.10776913975740217,-0.10742259617093307,0.18787543445391985,0.33412083679762694,0.3249867694734005,0.342853805214471,0.31954597260657414,0.3327783237363916,0.3016852501672942,0.3277654017834977,0.34442211348191304,0.3294592189146068,0.3352109891359985,0.3077620758328027,0.3168871236156773,0.33086863809709405,0.28468593726728325,0.29409681635781404,0.28932014370223597,0.28620601105847804,0.26254408851332334,0.2547968683570752,0.2629523457171014,0.20453612908383495,-0.08221701921074322,0.1828862734777794,-0.07849942552856262,0.19609688437243733,-0.07483526773899711,0.1965542457472955,-0.07123891722244803,0.2508720538674365,0.2891271741485096,0.31470603776075207,0.32920238645941335,0.3294510165857507,0.32338561286463025,0.35223981595245907,0.2986665867841322,0.32283048498399786,0.34226861076949566,0.30147489088052615,0.3273074629264005,0.27862434102104927,0.2965526345134247,0.2875210466964716,0.2943347921023271,-0.0382357999536581,-0.036243754300620726,0.28285682285386776,-0.03241541139451062,0.2167888772449578,0.2026816800268117,-0.027169669118966955,-0.02557961143130908,0.22647652342711236,-0.022668409319443326,-0.021353171547453094,-0.020134048489095436,-0.019010377611604883,0.21671742928669357,0.246203958893262,0.1804578528296128,-0.015406216072507821,-0.014714214101557982,-0.014101551173844967,-0.013564201491461427,0.21842863206929503,0.24420539024292076,-0.012346315210188565,-0.012053329918012494,-0.011808221831691503,-0.011604332110638856,0.2708368516391422,0.32965700213976606,0.3456437798247158,0.32356043714173716,0.30781326401803843,-0.010824377450745597,0.2588628411110961,-0.01062019296545258,0.25589329553737106,-0.010417838211747228,-0.010314658803789746,0.22766005108309612,-0.010097062604343109,0.3848829392770936,0.5864053890114976,0.700718583693734,0.5216671346886311,-0.009429321833994735,-0.009294125046923526,-0.009174958454911685,0.0511812815987229,-0.009011605054324585,-0.0089798113197074,-0.008988849446638178,-0.009043334740743874,0.23823630939082396,0.26028157357546305,0.0,0.0,0.0,0.0,0.0,0.0,0.0,0.0,0.0,0.0,0.0,0.0,0.0,0.0,0.0,0.0,0.0,0.0,0.0,0.0,0.0,0.0,0.0,0.0,0.0,0.0,0.0,0.0,0.0,0.0,0.0,0.0,0.0,0.0,0.0,0.0,0.0,0.0,0.0,0.0,0.0,0.0,0.0,0.0,0.0,0.0
-0.010097062604343109,0.3848829392770936,0.5864053890114976,0.700718583693734,0.5216671346886311,-0.009429321833994735,-0.009294125046923526,-0.009174958454911685,0.0511812815987229,-0.009011605054324585,-0.0089798113197074,-0.008988849446638178,-0.009043334740743874,0.23823630939082396,0.26028157357546305,-0.00951484198975061,0.21222223805726853,-0.010128147692374207,-0.010539487544945523,-0.01102705927598631,0.2484752114823595,-0.012244205256435709,0.20585900268752258,-0.013804767851215895,0.21046042274457807,-0.015733677741530873,-0.016843652172963023,-0.018053665380534236,0.16775928121485956,0.18220792528107457,0.19972981667554426,-0.023887131558626082,0.09492670275438045,0.11215088416634003,-0.029302584188473313,-0.03130515927288424,0.09663110387649261,0.11030011127887189,-0.037866676338176856,0.10567148867965294,0.10958778093348408,0.1419837040262267,0.1806653382697492,0.20343805405740004,-0.052933856990204295,0.3122832004611866,0.2730922375218516,0.2766941972371924,0.3088235844624915,0.3060540111160762,0.32389184209343697,0.3084223586925297,0.29929086980023395,0.2949105858653391,0.28735005837054806,0.2924632236646513,0.29914414067126105,0.28518487160232997,0.2505770517401892,0.27142884058366673,0.2684396632087535,0.2637981877350436,0.24639013689719086,0.2796320739518305,0.2525023611321207,0.24585862849092124,0.2517529684049554,0.2717509877254109,0.46282451607621167,0.6679574799953172,0.254394303517764,-0.1388198455053635,-0.14381126857129384,-0.14911520881667661,0.016530844353222194,-0.1606579837897183,0.18675698630308568,0.20723265600770874,0.17989371063257384,0.18722576145894848,0.1896076419485927,0.16961831822554171,0.184367967888541,0.14983055455857683,0.16117346097339116,0.15339846729657117,0.1534824042445987,0.1471707792153227,0.13289465721804664,0.1233564830595879,0.11064275891032975,0.10904043894932264,0.08050483341998473,0.07579498252786976,0.04259313313862351,0.04275807835426092,0.0699594013099487,0.05760642748895164,0.058042429672613506,0.03322032681787555,0.024382279066254037,0.037882886643072614,0.04360344341976672,0.09547195713386551,0.0,0.0,0.0,0.0,0.0,0.0,0.0,0.0,0.0,0.0,0.0,0.0,0.0,0.0,0.0,0.0,0.0,0.0,0.0,0.0,0.0,0.0,0.0,0.0,0.0,0.0,0.0,0.0,0.0,0.0,0.0,0.0,0.0,0.0,0.0,0.0,0.0,0.0,0.0,0.0,0.0,0.0,0.0,0.0,0.0,0.0
0.6679574799953172,0.254394303517764,-0.1388198455053635,-0.14381126857129384,-0.14911520881667661,0.016530844353222194,-0.1606579837897183,0.18675698630308568,0.20723265600770874,0.17989371063257384,0.18722576145894848,0.1896076419485927,0.16961831822554171,0.184367967888541,0.14983055455857683,0.16117346097339116,0.15339846729657117,0.1534824042445987,0.1471707792153227,0.13289465721804664,0.1233564830595879,0.11064275891032975,0.10904043894932264,0.08050483341998473,0.07579498252786976,0.04259313313862351,0.04275807835426092,0.0699594013099487,0.05760642748895164,0.058042429672613506,0.03322032681787555,0.024382279066254037,0.037882886643072614,0.04360344341976672,0.09547195713386551,0.12213875789885789,0.12837164860930148,0.15223942465258847,0.1699644050684234,0.18314079774633912,0.21080565766112236,0.19270559268684723,0.12726040990287518,0.14768115623503436,0.14930964811693223,0.1448354700435461,0.14377587870574352,0.13186054719802465,0.1233626610383166,0.1135252589065967,0.100762343925406,0.08507314221892553,0.08548586363483028,0.08931248009639461,0.08227874546964023,0.08499736087274655,0.07050689719213156,0.09272082235206687,0.09613269841485941,0.09659620209575574,0.08459187939955863,0.09500193093222552,0.1040338811067413,0.10851005748958449,0.0925659424543522,0.10376810094173301,0.09770677864250372,0.09023174626844632,0.09560649536951508,0.11540774131345717,0.11632432762098444,0.11737561149593978,0.14709511228813468,0.19754257802683028,0.22430383682323332,0.23529481979749786,0.22415822089918375,0.22418032330211338,0.16874147982913296,0.1513857758228539,0.1483079464513373,0.12460143555822382,0.12464847684414546,0.14684275279245662,0.16579046322511026,0.21477132698387083,0.43489799665773105,0.8261466850928803,0.6685424855632733,0.1808944123466485,-0.44019293178276675,-0.15447523446166686,-0.0402826439186834,0.11807451915935621,0.18583003216327848,0.21216879495171292,0.2098015937906352,0.21839659477693227,0.20308875548660188,0.22415937918873613,0.20551075970628513,0.21693680783527444,0.2045387378390424,0.19529200132154612,0.0,0.0,0.0,0.0,0.0,0.0,0.0,0.0,0.0,0.0,0.0,0.0,0.0,0.0,0.0,0.0,0.0,0.0,0.0,0.0,0.0,0.0,0.0,0.0,0.0,0.0,0.0,0.0,0.0,0.0,0.0,0.0,0.0,0.0,0.0,0.0,0.0,0.0,0.0,0.0,0.0,0.0,0.0,0.0,0.0,0.0
0.21477132698387083,0.43489799665773105,0.8261466850928803,0.6685424855632733,0.1808944123466485,-0.44019293178276675,-0.15447523446166686,-0.0402826439186834,0.11807451915935621,0.18583003216327848,0.21216879495171292,0.2098015937906352,0.21839659477693227,0.20308875548660188,0.22415937918873613,0.20551075970628513,0.21693680783527444,0.2045387378390424,0.19529200132154612,0.22727156158859488,0.20375920211156123,0.18978621405332577,0.18536545403544524,0.17782250472493022,0.160825184473259,0.16927097884568262,0.19365443169936442,0.17372394044267023,0.14913174377167918,0.1373281429716854,0.1224610904826403,0.11405050215073188,0.11844410026082677,0.09917268989105008,0.08636969027227334,0.07528063095736034,0.07542272530213366,0.08521227586371975,0.10306520808561856,0.10995332444267132,0.1486937465731234,0.17805614306807074,0.2218268547951898,0.27683289166655556,0.27488273871465574,0.30001939708922887,0.31735019643123435,0.30308150068018747,0.30795024653754155,0.30974548641226063,0.30052684861348633,0.3151687596771589,0.2981540777127105,0.29228310391771195,0.3022956736489184,0.2964569764050722,0.27474650276523693,0.2926449330013006,0.2882830671854863,0.2711508204224032,0.2713519445644729,0.2793440700116528,0.2776545172645049,0.27418186015019297,0.2863380279909009,0.4060657387124323,0.8474121569014051,0.35598029534842096,-0.42126810732326875,-0.1776841911711488,-0.13750091796592803,-0.06124961989663464,0.07646969866375575,0.19481487998454824,0.24624498717317841,0.26885080317114335,0.25790553274077344,0.2641837083680897,0.24965429784711882,0.2571602700780038,0.25183960492060903,0.24640271527148286,0.22977189541013182,0.21941243890530657,0.2105874216751982,0.20490198508754098,0.2039602175729607,0.1871641142610753,0.16721625366703852,0.14730353471782612,0.13854097339881788,0.12667019913076838,0.1148758455368442,0.09841295974954407,0.07095022389420448,0.061043221845921536,0.046501882634768746,0.05429533954067899,0.06381877449613778,0.08301132925975338,0.09761075770517896,0.12031283932430736,0.14319758739209484,0.16944494801484217,0.0,0.0,0.0,0.0,0.0,0.0,0.0,0.0,0.0,0.0,0.0,0.0,0.0,0.0,0.0,0.0,0.0,0.0,0.0,0.0,0.0,0.0,0.0,0.0,0.0,0.0,0.0,0.0,0.0,0.0,0.0,0.0,0.0,0.0,0.0,0.0,0.0,0.0,0.0,0.0,0.0,0.0,0.0,0.0,0.0,0.0
0.8474121569014051,0.35598029534842096,-0.42126810732326875,-0.1776841911711488,-0.13750091796592803,-0.06124961989663464,0.07646969866375575,0.19481487998454824,0.24624498717317841,0.26885080317114335,0.25790553274077344,0.2641837083680897,0.24965429784711882,0.2571602700780038,0.25183960492060903,0.24640271527148286,0.22977189541013182,0.21941243890530657,0.2105874216751982,0.20490198508754098,0.2039602175729607,0.1871641142610753,0.16721625366703852,0.14730353471782612,0.13854097339881788,0.12667019913076838,0.1148758455368442,0.09841295974954407,0.07095022389420448,0.061043221845921536,0.046501882634768746,0.05429533954067899,0.06381877449613778,0.08301132925975338,0.09761075770517896,0.12031283932430736,0.14319758739209484,0.16944494801484217,0.18161887314776506,0.17814037380068387,0.1685300872845945,0.1654793414644928,0.16106334339178996,0.16004279774466576,0.1402191632096968,0.1285526077254397,0.12028678557594541,0.10273575514255402,0.09651457655930158,0.09845093686243137,0.10378624988736929,0.09666090281931565,0.08975899521504176,0.049776215116705054,0.033797867563751985,0.038648964853043304,0.031024328361346994,0.02836388631450988,0.02432055239771987,0.03316237663988136,0.032684103024643876,0.03239612228246309,0.040222871095344975,0.04347334600153596,0.032627923680795805,0.03463994788864717,0.0384036241705668,0.04708510052370226,0.0400634735080631,0.036362369956517954,0.024875194453812866,0.035725726099140376,0.04353494763801409,0.04829631323426869,0.050003059377000565,0.053405552957543366,0.055324957712261424,0.0525821703497543,0.06578467037285007,0.06955174616342519,0.05277447283141454,0.04874571531018734,0.04318435582271446,0.051939054794144984,0.05755665354122485,0.08381429001172233,0.1180156299276451,0.12209126989259901,0.12457442280528819,0.14924031922426365,0.15960352297445243,0.19053842993623668,0.1738422471566429,0.14755920106215747,0.12594578944901388,0.1058140754101608,0.08873286419340294,0.08895675699964371,0.09060988943471035,0.09050227734412093,0.17266196806034245,0.37988600007815865,0.5583325107186383,0.6175893629902284,0.0,0.0,0.0,0.0,0.0,0.0,0.0,0.0,0.0,0.0,0.0,0.0,0.0,0.0,0.0,0.0,0.0,0.0,0.0,0.0,0.0,0.0,0.0,0.0,0.0,0.0,0.0,0.0,0.0,0.0,0.0,0.0,0.0,0.0,0.0,0.0,0.0,0.0,0.0,0.0,0.0,0.0,0.0,0.0,0.0,0.0
0.6175893629902284,0.135811387000517,-0.19245307302385295,-0.31014418434283203,-0.0507642778469549,0.08459592491034305,0.1356051291076779,0.16413268573512343,0.16385827075592538,0.15700497077272116,0.15786609995712203,0.17121944368827838,0.17171197608408567,0.1704629996077138,0.1690762143948453,0.16915446826616456,0.15485606675400468,0.16425535096812932,0.16723689073678616,0.15747129403048485,0.14765782017049492,0.1393944067260744,0.13744983423324925,0.12756269872079795,0.1351156746666897,0.1220591736180207,0.104259812893286,0.09599780888717763,0.08142283476456819,0.09542938379518885,0.0872788482261352,0.06490639639115933,0.06954836341639599,0.0568080659875363,0.04254851690996428,0.0584903512280786,0.06499341298664212,0.06681939136082635,0.08141597558221399,0.107201033250217,0.1568641405357796,0.18759166562697313,0.21682923625267625,0.2525067984158321,0.2787663545541857,0.305121294618441,0.31729675530851226,0.33748953216033356,0.3403211153880282,0.3337129109446822,0.316069879410198,0.3190969159865468,0.32216624480446526,0.3331927258129304,0.3204448424313335,0.31562103723281526,0.30443022235620465,0.3042955443938339,0.302508605856168,0.30063160342736023,0.31291154627201023,0.29491968716312494,0.2910299894803104,0.29011227002703016,0.28579226234060373,0.3604985245613306,0.5141970732156056,0.6057167564510328,0.10060777570210028,-0.1987611968317249,-0.27657414344535286,-0.2787468081693114,-0.05304002243881959,0.10086153429635462,0.21629425325481463,0.23303237429935839,0.23357021233562023,0.24489824512965652,0.2591183887819031,0.2429586848546183,0.2329206669472335,0.2211025162835904,0.21228757450767144,0.22235861214641886,0.2132804569391301,0.20727686869355166,0.19961210014025935,0.17920620511374744,0.17779458634224043,0.16843749728936147,0.1432237899810157,0.12278570555844223,0.11665423464838885,0.09154340699484469,0.07918408481593857,0.09544876633341982,0.07692002245188966,0.06642791890372747,0.06081420861110063,0.07277821863592654,0.08806053129419347,0.10825927129014105,0.13180054176948358,0.15393832332570972,0.0,0.0,0.0,0.0,0.0,0.0,0.0,0.0,0.0,0.0,0.0,0.0,0.0,0.0,0.0,0.0,0.0,0.0,0.0,0.0,0.0,0.0,0.0,0.0,0.0,0.0,0.0,0.0,0.0,0.0,0.0,0.0,0.0,0.0,0.0,0.0,0.0,0.0,0.0,0.0,0.0,0.0,0.0,0.0,0.0,0.0
0.6057167564510328,0.10060777570210028,-0.1987611968317249,-0.27657414344535286,-0.2787468081693114,-0.05304002243881959,0.10086153429635462,0.21629425325481463,0.23303237429935839,0.23357021233562023,0.24489824512965652,0.2591183887819031,0.2429586848546183,0.2329206669472335,0.2211025162835904,0.21228757450767144,0.22235861214641886,0.2132804569391301,0.20727686869355166,0.19961210014025935,0.17920620511374744,0.17779458634224043,0.16843749728936147,0.1432237899810157,0.12278570555844223,0.11665423464838885,0.09154340699484469,0.07918408481593857,0.09544876633341982,0.07692002245188966,0.06642791890372747,0.06081420861110063,0.07277821863592654,0.08806053129419347,0.10825927129014105,0.13180054176948358,0.15393832332570972,0.16358277503786126,0.19563121450346319,0.20251902875357256,0.2016980424084872,0.18683220807434417,0.16902816677434734,0.15780583474272597,0.14682637679353044,0.14877965624685124,0.13195266470872938,0.11854853123669683,0.10856865633387926,0.09567068524900829,0.0782690922713373,0.08490789526744824,0.08387067689695181,0.09418589537388548,0.07620733632532674,0.06957784584559983,0.06319458889844426,0.06974124197738733,0.0892148405795361,0.0851388870532948,0.06861015651089886,0.07292606716123101,0.0790526034405538,0.091742244573811,0.09196021510391204,0.08921551216536402,0.0835019293239916,0.08749913909153442,0.09644269956280624,0.11032510322072879,0.11169466342744665,0.11164337322240885,0.11333371403207472,0.11992760906603746,0.12031429921390974,0.12558349451834158,0.1388953503108145,0.1507230689818616,0.14995336781732987,0.1571880230464109,0.17717015485211227,0.21939946936112967,0.2584873930348261,0.2849021616165625,0.3002112528082759,0.28377965101001235,0.27364509279912974,0.26344175827256516,0.24680245930179198,0.2237018530612296,0.19728494396887006,0.20875459300386723,0.20733681830045553,0.23581824126803838,0.28465335591009,0.43309975230320874,0.6430650907900622,0.7337337097004539,0.27214602219715195,-0.3738369601187149,-0.3733047230192626,-0.04342365238995451,0.11313782636409968,0.19155847981606405,0.0,0.0,0.0,0.0,0.0,0.0,0.0,0.0,0.0,0.0,0.0,0.0,0.0,0.0,0.0,0.0,0.0,0.0,0.0,0.0,0.0,0.0,0.0,0.0,0.0,0.0,0.0,0.0,0.0,0.0,0.0,0.0,0.0,0.0,0.0,0.0,0.0,0.0,0.0,0.0,0.0,0.0,0.0,0.0,0.0,0.0
0.7337337097004539,0.27214602219715195,-0.3738369601187149,-0.3733047230192626,-0.04342365238995451,0.11313782636409968,0.19155847981606405,0.23627120875606747,0.26633530613488837,0.2627499084768337,0.25250074883977963,0.2387853871130427,0.23748644570567076,0.24228428430869348,0.23734333141330483,0.2274420822524255,0.20625731094677738,0.20869521073296757,0.19830036530399678,0.20204793999419102,0.19775259917008106,0.17750011260990797,0.1666768645155407,0.1351656796105786,0.11945175560754621,0.12271801120394604,0.10691621151220612,0.06888490186925689,0.053035811869005224,0.037177120307600835,0.024489390849085534,0.013395629388096157,-0.0008528618835537636,-0.010318522728721866,-0.013406874400124665,-0.006936667262885013,-0.013098028076009148,0.01886594426987248,0.05249491066040064,0.07035792518670839,0.07405326700058917,0.1000662572787689,0.11193547804665266,0.14455958925541038,0.1630619035497049,0.15000870768353197,0.14029656382320704,0.13234809964901445,0.13885735700982957,0.14080190345533997,0.135016518527793,0.12309264964372207,0.11772160353260924,0.10780721204167126,0.10445378720118978,0.11876510200538612,0.10792752582977348,0.07987213431825825,0.07583106666374152,0.07519022820900834,0.07160726079292065,0.07142575532667522,0.06513103840582006,0.06382335766027473,0.06750210066922545,0.055551057731921906,0.06285635361481703,0.060872210211696094,0.07179783522847945,0.05598629752059188,0.049908257095136785,0.05356090958523695,0.05584066668718844,0.07260211296762534,0.0673684630680107,0.06392261248075273,0.052745516669320244,0.06554836781041601,0.06743888797991143,0.06792660909400411,0.07017756336271382,0.06308532771160456,0.059329987597440646,0.06366235991067547,0.07448980238008644,0.0711898668874378,0.08388503295938485,0.08719475219554201,0.10014019435252404,0.12271260567797095,0.1469737785788786,0.15229856687573873,0.17039218024198755,0.16477006985704468,0.18933690073169346,0.16954747316367547,0.16564784414065895,0.14590736649274674,0.14044039930026553,0.11910052824519929,0.1294443775763248,0.13973844464305374,0.16106492652714063,0.21402006538572346,0.0,0.0,0.0,0.0,0.0,0.0,0.0,0.0,0.0,0.0,0.0,0.0,0.0,0.0,0.0,0.0,0.0,0.0,0.0,0.0,0.0,0.0,0.0,0.0,0.0,0.0,0.0,0.0,0.0,0.0,0.0,0.0,0.0,0.0,0.0,0.0,0.0,0.0,0.0,0.0,0.0,0.0,0.0,0.0,0.0,0.0
0.21402006538572346,0.39055987630835887,0.8777867419603447,0.6131980773952324,0.12800648980700916,-0.19247121737069608,-0.17541482487992313,-0.06029139196002461,0.0862998650028683,0.13591962281541595,0.15518037402089396,0.16629179398229854,0.1803622477652144,0.17995503767343576,0.1682478423626659,0.17061850950450272,0.1838998142285113,0.17162207538508525,0.17660422372227055,0.17347533487655376,0.17333678590579565,0.16825959895596887,0.15824288262878888,0.1670717636469935,0.16302790554120067,0.14610794904189964,0.11789351036798625,0.11326707838523493,0.10209313674655479,0.0986377403516279,0.07117850542435283,0.0688678770245844,0.042538925387712756,0.019142326550597603,0.005013265692323514,0.006486832280342054,-0.33800533496502155,-0.016736945966349462,-0.011288419453035266,0.006624474529269418,0.03227100646852173,0.06409199498617496,0.08784177232517415,0.13050490659478567,0.14453336718249382,0.1775259086273184,0.19461945014885057,0.21645269531484498,0.2271901901533126,0.2331964672198703,0.22814859809570842,0.22316618528696036,0.2166813655332933,0.23408360041833398,0.23257227111769904,0.21691930722703728,0.1982386379923796,0.19874364245876225,0.19941615215173503,0.19392332990211114,0.19813241025102565,0.1866791017966677,0.1801860506852749,0.17707390087649327,0.18051976728351843,0.16674143877515576,0.15477214857560487,0.14937218055046106,0.1489578821928389,0.15035906350701553,0.14406162719611926,0.15702390861045357,0.16387243207034827,0.16460558682354157,0.14177724584833207,0.16040157174767689,0.16814351177115272,0.1665840925102497,0.16206087172270206,0.14346687733850239,0.1567827895889256,0.16077008683446392,0.17762108863904036,0.17878201062224078,0.18010031788037273,0.17204993155273915,0.2021923348826945,0.2070828069085225,0.25013886594158996,0.2615705821327335,0.2540478875910526,0.24499677845653958,0.23281249309453492,0.217474835514421,0.22116351445419752,0.2184834324396524,0.20306787371421467,0.19550747077903732,0.20846288765623222,0.24190748580708135,0.32911518756505226,0.5477608433083486,0.9327013108850054,0.6022037263927154,0.0,0.0,0.0,0.0,0.0,0.0,0.0,0.0,0.0,0.0,0.0,0.0,0.0,0.0,0.0,0.0,0.0,0.0,0.0,0.0,0.0,0.0,0.0,0.0,0.0,0.0,0.0,0.0,0.0,0.0,0.0,0.0,0.0,0.0,0.0,0.0,0.0,0.0,0.0,0.0,0.0,0.0,0.0,0.0,0.0,0.0
0.32911518756505226,0.5477608433083486,0.9327013108850054,0.6022037263927154,0.04306787433006745,-0.32927005008003285,-0.3277279173766156,0.042927016575975016,0.1452281695196911,0.18217777736667257,0.20454144960650225,0.20440963160630055,0.21668809298017044,0.21126416554874322,0.20718360715815407,0.1886037255191516,0.1920118831462865,0.19522024630190585,0.20141267123589274,0.1852278067940779,0.17363438548077362,0.14761228545115848,0.15632951368966594,0.16649222646670972,0.14639158903306934,0.12616376866783655,0.12008629441281307,0.09486234565292288,0.06952559206345549,0.07262397277557885,0.04707238538403894,0.034104383295655225,-0.0011646655855345124,-0.01908740436448875,-0.024418503085100587,-0.02825398099958642,-0.041687537602369526,-0.031408050677512935,-0.0322894346941897,-0.0062562514717729115,0.0340247045727573,0.06637248959870391,0.10825075534020871,0.13589226534266918,0.15090189194465778,0.17549910618656814,0.2001868120406448,0.20278071096012557,0.20708343167428755,0.1988376139384257,0.1907433027655626,0.18757059584097865,0.19091705587757143,0.18334982020004562,0.18390825599031926,0.16405709484317524,0.1729638895809055,0.1662337256921939,0.17083140210332762,0.166147167733931,0.14742832362596275,0.13529399013249424,0.14719096920910976,0.14030534247993295,0.15745514952270293,0.143138709456509,0.15127310745217148,0.14697043782263278,0.1429157573533323,0.14386443483784778,0.15139954323510132,0.14331657676282364,0.13705503833939117,0.1341958080209516,0.15376277749574033,0.16403386737904913,0.15548729826336505,0.1582452362702001,0.16278430438621302,0.1579945437439467,0.17082415662484934,0.16003155833646807,0.17952174774163518,0.20390939214866768,0.2204945862806194,0.2245053584532558,0.23812707518429688,0.2407276335104395,0.26717641181071117,0.2809810065689203,0.25199084089855417,0.22458609252098716,0.22887356355197888,0.21566940178010258,0.2166639326507714,0.23500217195956918,0.23576907711198908,0.26333796189938796,0.34780884561632663,0.5716115215893942,0.7301459404448116,0.5791644290528296,0.012379448184296331,-0.35337891087396583,0.0,0.0,0.0,0.0,0.0,0.0,0.0,0.0,0.0,0.0,0.0,0.0,0.0,0.0,0.0,0.0,0.0,0.0,0.0,0.0,0.0,0.0,0.0,0.0,0.0,0.0,0.0,0.0,0.0,0.0,0.0,0.0,0.0,0.0,0.0,0.0,0.0,0.0,0.0,0.0,0.0,0.0,0.0,0.0,0.0,0.0
0.26333796189938796,0.34780884561632663,0.5716115215893942,0.7301459404448116,0.5791644290528296,0.012379448184296331,-0.35337891087396583,-0.35164515706576577,0.06831705582240417,0.18499744448988442,0.2061586920203374,0.22062825941511782,0.22208513920605152,0.22482249894681558,0.22727448948604623,0.23421730007162275,0.22981070541582874,0.223585959191399,0.21238684099406535,0.21684287190878063,0.20842300162032398,0.19982565192541127,0.19264766811020878,0.1868991057046888,0.17624589448874484,0.15276723911880766,0.14818622872019704,0.14347988848813414,0.10852396829115528,0.0972404038788812,0.07474631321676052,0.03470255937104309,0.0373728380496604,0.02567216498059583,-0.006739330878454269,-0.02497109260432245,-0.021090363712293635,-0.034735734301889594,-0.04211216577070038,-0.022592900877426155,0.014322796344226145,0.02266462374364021,0.05478122648815525,0.09166055816494059,0.11587608908296748,0.1322019000394989,0.14223991119548354,0.14283400981856634,0.14668527825618113,0.15222196903430238,0.16262897313631663,0.16840409541228943,0.15687274631155154,0.15341846933338402,0.14377925791497456,0.1454081509598536,0.15355639968417936,0.1349302969605347,0.13711068990416225,0.13631717272176846,0.12621235097388936,0.12583079868214905,0.12883380875946499,0.111438348057482,0.10060603935270432,0.09951108881087867,0.09864087454407922,0.10751176464414976,0.11343856520747865,0.10690712602750005,0.10060379849590453,0.0961138650732113,0.08709315206127465,0.10367018963511629,0.10302670361901188,0.09626078283606096,0.09605579160377936,0.10240828791229294,0.11372855884483493,0.13318375132700241,0.09892302789628471,0.11084552922073083,0.10551346667599952,0.10829277257443391,0.11600462035822325,0.13815596702916952,0.15253737700728345,0.17024032711936452,0.17222550957457214,0.18226911233466075,0.18608748716340962,0.2011118870377254,0.19085575314730702,0.17274840247219012,0.15470345394603793,0.13829050024876305,0.13935047619441873,0.14835097509760528,0.15100152163673858,0.159969339410245,0.19743564077654965,0.3347403477133492,0.5290454698088545,0.856445640044623,0.0,0.0,0.0,0.0,0.0,0.0,0.0,0.0,0.0,0.0,0.0,0.0,0.0,0.0,0.0,0.0,0.0,0.0,0.0,0.0,0.0,0.0,0.0,0.0,0.0,0.0,0.0,0.0,0.0,0.0,0.0,0.0,0.0,0.0,0.0,0.0,0.0,0.0,0.0,0.0,0.0,0.0,0.0,0.0,0.0,0.0
