0.604063839467612,0.6279252865234058,0.5959698575868037,0.5199584435100496,0.41950445301087175,0.31644686120081467,0.22915631761550517,0.16863216033818001,0.13709362084007068,0.12942278182602762,0.1365212766598759,0.14913397748554102,0.16128395276931445,0.17140858873257553,0.18185918473708565,0.19695038039966745,0.22045540786020829,0.25434583731366994,0.2979245388101228,0.34864244893244045,0.4035412360583495,0.4606282109639518,0.5194196093508529,0.580439275367212,0.6438059306883767,0.707599199161539,0.7668640494118688,0.8135967886783838,0.8383910687063493,0.8329098707744274,0.7925586267553512,0.7184737183854214,0.6176626160363068,0.5018980232768602,0.3850104510775487,0.27968935431469083,0.19416336262452047,0.13231480469291806,0.09247666637499531,0.06915767553551506,0.055265312054200336,0.044224728622808,0.03224013581248999,0.018565971238021686,0.005195366312670823,-0.004396742659362732,-0.006871245022767328,-0.00047734189716153706,0.014086913219458187,0.03363618129334412,0.053279022200205355,0.06749088583526672,0.07291929380593154,0.0682115925353595,0.05536135996725654,0.03956476481772949,0.027852042952223863,0.02766227739442129,0.043662513896223096,0.07611915955342109,0.12011406685894038,0.16624166059850085,0.20317128046096083,0.22056235873580177,0.21247754835662197,0.17957421630592196,0.12921651681077034,0.07381679718711501,0.026510308379263204,-0.0030469452669892013,-0.01211754334837784,-0.006263574660268002,0.003188167934105292,0.0024022343936436954,-0.019016729257350696,-0.06309461327226891,-0.12145833967887906,-0.17520681876496896,-0.2015895948913149,-0.18037827370597395,-0.10088591551891575,0.03291138368042898,0.20324079043499865,0.38027663302329673,0.530257383764258,0.6242885756266983,0.6457245861103658,0.5947164087054815,0.48684056033522927,0.34845016915432164,0.20916205758694972,0.09406423902164222,0.018101476509259834,-0.01626221505453415,-0.0173875794412997,0.0,0.0,0.0,0.0,0.0,0.0,0.0,0.0,0.0,0.0,0.0,0.0,0.0,0.0,0.0,0.0,0.0,0.0,0.0,0.0,0.0,0.0,0.0,0.0,0.0,0.0,0.0,0.0,0.0,0.0,0.0,0.0,0.0,0.0,0.0,0.0,0.0,0.0,0.0,0.0,0.0,0.0,0.0,0.0,0.0,0.0,0.0,0.0,0.0,0.0,0.0,0.0,0.0,0.0,0.0
0.7925586267553512,0.798506686366581,0.7253563152782386,0.5935192641555278,0.43401641417040665,0.2796893543146909,0.15608144127132742,0.07726146901956618,0.042961748155411345,0.04148737469839304,0.05526531205420032,0.06712037948589131,0.06608812790060699,0.049557412478023435,0.0227606398699106,-0.00439674265936272,-0.021825596362593153,-0.022792510428684933,-0.006512402165922817,0.02187426435297499,0.05327902220020535,0.07765911711122317,0.08793771894718183,0.08190839678451436,0.06307322443306425,0.0395647648177295,0.021279208919867402,0.017759241520064684,0.03440881275091754,0.07075212013844634,0.12011406685894037,0.17050948276034367,0.20944915897704378,0.2262567441451695,0.21566116607771518,0.17957421630592196,0.12596696505009986,0.06863478663094147,0.02134163402882782,-0.006272490652902613,-0.01211754334837784,-0.0030549956512690235,0.008365845386097462,0.00763074386476612,-0.0157133294440783,-0.0630946132722689,-0.1246689916286319,-0.18090171728778381,-0.20784011820194398,-0.18462546316526768,-0.10088591551891574,0.03808447282871711,0.21252815784438042,0.3906325181965889,0.5374388796491826,0.6242885756266983,0.6364428256330159,0.5773253891421848,0.4663453905504369,0.3331646735892413,0.20916205758694972,0.11902061838278695,0.07512089014109843,0.0758640152007615,0.10845063784351971,0.15457950077448038,0.19699347547841203,0.22468275598165502,0.23527847434252971,0.2342187716485322,0.23145106519821987,0.23712714662112017,0.2580781351051203,0.2958696943936914,0.34723217729060296,0.4061407770527636,0.466517818110401,0.5245156777405587,0.5792819518653288,0.632322415075298,0.6857045202997817,0.7398998927680044,0.7925134279110053,0.8376655741576454,0.8671455132073985,0.8724494033233646,0.8470396322634022,0.7886250329097306,0.6996420110910075,0.5871844136378405,0.46171919739444905,0.3351488146890385,0.21869591775637257,0.12116744218377341,0.04781919685571269,0.0,0.0,0.0,0.0,0.0,0.0,0.0,0.0,0.0,0.0,0.0,0.0,0.0,0.0,0.0,0.0,0.0,0.0,0.0,0.0,0.0,0.0,0.0,0.0,0.0,0.0,0.0,0.0,0.0,0.0,0.0,0.0,0.0,0.0,0.0,0.0,0.0,0.0,0.0,0.0,0.0,0.0,0.0,0.0,0.0,0.0,0.0,0.0,0.0,0.0,0.0,0.0,0.0,0.0,0.0
0.6242885756266983,0.6221161017378974,0.5574991291766257,0.4490286865668273,0.323666334218068,0.20916205758694972,0.12671893743386398,0.08648098606776546,0.08629700516603664,0.1144091959737282,0.15457950077448038,0.19172866184618034,0.2166372486275663,0.22763189173542822,0.2296981799089743,0.23145106519821987,0.2412884802008919,0.2646033977997451,0.3022370430497457,0.35109998130148257,0.4061407770527636,0.46253722229827765,0.5179521979933165,0.5725333160650082,0.6279951574232456,0.6857045202997817,0.7445389164724564,0.8004168162152614,0.8460766000845952,0.8727409811492968,0.8724494033233646,0.8403591901728804,0.7764177263533668,0.6856074545458563,0.5769799349944671,0.46171919739444905,0.35086965803211473,0.2533370177401111,0.17468326643515997,0.11684057464060899,0.07864520891751771,0.05685663672128277,0.04734571393540195,0.04602823013607395,0.0494791414441776,0.05517447707934281,0.06146362528511116,0.06740429819924222,0.07256957147756223,0.07688394714501762,0.08049626095880388,0.08335149575783986,0.08632359861372936,0.0895119562247501,0.09281031520099865,0.09596806992342188,0.09855737657036778,0.100455874495357,0.10136809540488859,0.10110026116417116,0.09966089793772673,0.09727984724328838,0.0947888548754746,0.09324373034689928,0.09401370527714466,0.09861694747761413,0.10830619563354826,0.12413280767036158,0.1459419587216247,0.1723070279639524,0.20048899922601332,0.22648682517261406,0.24640381129527114,0.25618717007226766,0.2528928490632878,0.23544783677373415,0.20469378888759784,0.16464000706699283,0.12009457807381062,0.07640488572691959,0.03846950288307644,0.009402767912570555,-0.00831598181111911,-0.015222937659517669,-0.0136486313787368,-0.006916477728769789,0.001317400597634673,0.008727090019848227,0.01356603916473685,0.015219604674027432,0.014048510953028955,0.010988505796967042,0.007279020579023137,0.0038965462065255517,0.0014201027289837522,0.0,0.0,0.0,0.0,0.0,0.0,0.0,0.0,0.0,0.0,0.0,0.0,0.0,0.0,0.0,0.0,0.0,0.0,0.0,0.0,0.0,0.0,0.0,0.0,0.0,0.0,0.0,0.0,0.0,0.0,0.0,0.0,0.0,0.0,0.0,0.0,0.0,0.0,0.0,0.0,0.0,0.0,0.0,0.0,0.0,0.0,0.0,0.0,0.0,0.0,0.0,0.0,0.0,0.0,0.0
0.8724494033233646,0.9156879898733121,0.8775230270528437,0.7714533912012943,0.6228300193121424,0.4617191973944491,0.3152946327369405,0.2019163721759069,0.12842750411059875,0.09097924820181585,0.0786452089175177,0.07829226390141446,0.07907262058216838,0.07511692970157316,0.06599079538458594,0.055174477079342824,0.04755897855968129,0.04672529128867478,0.053569041716224,0.06610224387668914,0.08049626095880387,0.09242259858639162,0.09946079837570644,0.1011920500397642,0.09917333670368735,0.0959680699234219,0.09365724869265883,0.0935958284487297,0.09553124480918879,0.09810050688220005,0.09966089793772673,0.09888382130742636,0.09632210434942665,0.0937245935851494,0.09366274206784735,0.09861694747761413,0.10958453448565053,0.12701446453991785,0.14963911078031403,0.17509983650091895,0.20048899922601332,0.2220919296885612,0.23800735201288462,0.24645122732606353,0.24600751888205394,0.23544783677373415,0.21382022910307155,0.18092181604570592,0.1380404190342058,0.08862843875029072,0.038469502883076434,-0.00545836583034207,-0.03486172379213708,-0.04457033654047682,-0.0337410989151091,-0.006916477728769774,0.026203333385585288,0.05384901815130877,0.06447412017566818,0.051052817596845254,0.014048510953028935,-0.03775042463584787,-0.08887437110315653,-0.12155155831224192,-0.12100723822979585,-0.08032190776775099,-0.003129604403690974,0.09704948066104324,0.20043318146940725,0.2868677029881327,0.34182570216805164,0.3604901665986205,0.3487554691324619,0.32032013322473224,0.2915453556930185,0.2756601181707505,0.2784847850960058,0.29751685825421975,0.3240575699105312,0.3481560803249545,0.3639348907488131,0.37307810085523563,0.3851731039275089,0.41389783288991594,0.4710420901494655,0.5601842762669584,0.6725911307416129,0.7874810550988955,0.8763798337823883,0.9111473177250624,0.8727320938461279,0.757708951770221,0.5808802797167618,0.37164105095265937,0.16661458735733833,0.0,0.0,0.0,0.0,0.0,0.0,0.0,0.0,0.0,0.0,0.0,0.0,0.0,0.0,0.0,0.0,0.0,0.0,0.0,0.0,0.0,0.0,0.0,0.0,0.0,0.0,0.0,0.0,0.0,0.0,0.0,0.0,0.0,0.0,0.0,0.0,0.0,0.0,0.0,0.0,0.0,0.0,0.0,0.0,0.0,0.0,0.0,0.0,0.0,0.0,0.0,0.0,0.0,0.0,0.0
0.8727320938461279,0.9827632659746413,1.0283919572653932,1.0097995763648187,0.9371322708664148,0.8270302779236899,0.6982278079617208,0.5675272228280355,0.44710915094416515,0.34364268048567925,0.25901089971678887,0.19205308751189906,0.14037952838989415,0.10184457217955539,0.07510676715124304,0.05941611145270993,0.053945714644634345,0.057155530025542745,0.06649183724507815,0.07862809502591966,0.09012636687482843,0.09868156436298295,0.10248134923093669,0.1014528676757838,0.09688353670640171,0.09094277758145523,0.0857708805908776,0.08348908960801638,0.08511527924573108,0.09038026076791403,0.09773172013123863,0.10451771507034469,0.10821650490071473,0.10689380548145194,0.10010106866116433,0.08932481185176504,0.0775647498333279,0.069443245930461,0.06921282159100133,0.07940902050213558,0.09966498128573083,0.12586820187041023,0.1524434516280837,0.17295189577101314,0.18248231478035296,0.1793564172899595,0.1657389499082122,0.14680817475853097,0.12868883303244963,0.11588115965812552,0.1092113249767564,0.10478020312725046,0.09696178433926565,0.07899028972686188,0.047242007147996666,0.003915986321122908,-0.04282542657668898,-0.07934237550337894,-0.09300863134531608,-0.07655991609847468,-0.03209722087285957,0.02753907960270513,0.08168123171747113,0.10686477501181818,0.08452753416990809,0.007876742079234458,-0.11425049038953676,-0.2579188076735093,-0.3896071278045168,-0.47486207507802763,-0.4878596982606338,-0.4190059185551276,-0.2779825174717248,-0.09183547492005843,0.10205485232316874,0.2657183048462428,0.3702907693059467,0.4032119104605668,0.37044036248756057,0.2939617932452623,0.20514805954602208,0.13601789674254014,0.11112584839327658,0.1415262489571508,0.22289234350949544,0.3375258836233005,0.45943298505131014,0.5611861136340891,0.620186226974426,0.6235475403335542,0.5702744112074253,0.47053553882967414,0.3427815744103579,0.20893286257476307,0.08960101352791136,0.0,0.0,0.0,0.0,0.0,0.0,0.0,0.0,0.0,0.0,0.0,0.0,0.0,0.0,0.0,0.0,0.0,0.0,0.0,0.0,0.0,0.0,0.0,0.0,0.0,0.0,0.0,0.0,0.0,0.0,0.0,0.0,0.0,0.0,0.0,0.0,0.0,0.0,0.0,0.0,0.0,0.0,0.0,0.0,0.0,0.0,0.0,0.0,0.0,0.0,0.0,0.0,0.0,0.0,0.0
0.8293988003843978,0.9343759488530591,0.975034704719226,0.9500320119090101,0.868595567856632,0.7477193992448083,0.6080333824218148,0.46938167318888574,0.34730975245763257,0.25100790467505146,0.18298545255013512,0.14021828052971202,0.11626166745739432,0.10357921233631766,0.09556114858847731,0.08780886276363008,0.07873242970678056,0.06865670877860373,0.059368887271639456,0.05299380117093172,0.0511039880253644,0.053878819388107485,0.060796977589893615,0.07021775018813306,0.07998180982787953,0.08793994411858935,0.09225283636384654,0.09234851726838693,0.08864301272309524,0.0825667827919632,0.07624692650940361,0.07171586455588481,0.0713064675520473,0.07646084306695075,0.08756093286215423,0.10382811489625143,0.12300465442773383,0.14339603192178257,0.16326437852328968,0.18154491591966304,0.19792741137370043,0.2117518610014577,0.22375455150308132,0.23354485604928193,0.239450795626096,0.2383961759820697,0.22651011538239993,0.2004520651660268,0.15911153607768494,0.10507440288683671,0.045166717635868284,-0.01085239391568223,-0.05101595760361435,-0.06662717670188338,-0.05471936970245489,-0.02000395380112179,0.024982637363882974,0.06411917358093144,0.08054937566470793,0.06292101453645849,0.00988665824526562,-0.06826120779606426,-0.15118430316706613,-0.21432641592380383,-0.23598368642613757,-0.2041557055442047,-0.12075981741474408,-0.0014239512734240886,0.12867885515002203,0.2423381323694992,0.3183536686006478,0.3475049580182053,0.3346169970607635,0.2957916363717785,0.25227562558174804,0.22303699581954003,0.21874891855432785,0.23954628712409087,0.27665424590093934,0.317677158070268,0.3529377106671837,0.3802530653311792,0.4063308119942433,0.44361747134682816,0.5042822654728453,0.5933704010141816,0.7039360838054962,0.8166193391567913,0.903593397009373,0.9365912122533082,0.895974300354476,0.7777246006485893,0.5964267736004395,0.3818085830175172,0.17128163005644148,0.0,0.0,0.0,0.0,0.0,0.0,0.0,0.0,0.0,0.0,0.0,0.0,0.0,0.0,0.0,0.0,0.0,0.0,0.0,0.0,0.0,0.0,0.0,0.0,0.0,0.0,0.0,0.0,0.0,0.0,0.0,0.0,0.0,0.0,0.0,0.0,0.0,0.0,0.0,0.0,0.0,0.0,0.0,0.0,0.0,0.0,0.0,0.0,0.0,0.0,0.0,0.0,0.0,0.0,0.0
0.895974300354476,0.9996015806579678,1.0351604296822918,1.0051332630243086,0.9225393838660058,0.8067371948757686,0.6782670844402563,0.5545328924552936,0.4468689490505249,0.35993941756155934,0.29299132596370575,0.24216327961731982,0.20304128154630036,0.1723132642532393,0.14841231100138652,0.1311189401388032,0.12060242421544165,0.11647808371402169,0.11735059367298746,0.12099633123311877,0.12503388517258585,0.1274716836298453,0.12795387879229214,0.12720022109274534,0.12659391214990381,0.12735280429080373,0.1295118679796889,0.13256843953616818,0.13509321445003392,0.13559423488876393,0.13327747684784882,0.1280856450851101,0.12192781190571086,0.117074678541528,0.115410170469674,0.11750232920313763,0.12153694107876603,0.12562917410722302,0.1273778767592604,0.12548992169298992,0.12072711419978188,0.1152351490679786,0.1143618666562853,0.12310159235806396,0.14455470623682676,0.1782039006719384,0.2192276800415952,0.25926396946828195,0.28853802255297445,0.2987497387345347,0.28577280856165904,0.2507381374755218,0.20156781380725133,0.14861692408154845,0.10235428330255664,0.07015217462358524,0.05368361178392296,0.050172140678535926,0.05199763310368383,0.05068053860964471,0.040488539587429984,0.020859104861121393,-0.0024969401541111227,-0.02013625577269318,-0.022059985164133055,-0.00155361656460994,0.04196272530737159,0.10256786850974225,0.16933403408490622,0.2301118221840056,0.2756604313150485,0.30260461409621947,0.3144356777436295,0.3193960624969765,0.3269978755284745,0.3440855614484572,0.37211502823814435,0.40716693466936793,0.4419531907239731,0.469924166552982,0.48921515675301297,0.5046737279833986,0.5272028340120594,0.5694761753442326,0.6403624323944856,0.7395660919423398,0.8547369283268574,0.962857102364155,1.0351856931049652,1.0453417582281694,0.9775424425053951,0.8323130542397865,0.6279950259006152,0.396580588177534,0.1759007007798632,0.0,0.0,0.0,0.0,0.0,0.0,0.0,0.0,0.0,0.0,0.0,0.0,0.0,0.0,0.0,0.0,0.0,0.0,0.0,0.0,0.0,0.0,0.0,0.0,0.0,0.0,0.0,0.0,0.0,0.0,0.0,0.0,0.0,0.0,0.0,0.0,0.0,0.0,0.0,0.0,0.0,0.0,0.0,0.0,0.0,0.0,0.0,0.0,0.0,0.0,0.0,0.0,0.0,0.0,0.0
0.9775424425053951,1.0603567108429277,1.0608127244073418,0.9873522606132502,0.860835546015767,0.7084132579062654,0.5564957238589789,0.4252645269928631,0.3253136821707749,0.25762340917129584,0.21605708181125616,0.19122100681916498,0.17431388787941193,0.15970104165565074,0.1457367975288022,0.13392434408113985,0.12697236140393214,0.12715678760763996,0.13475571396329594,0.14779870955264937,0.16272922319753702,0.1761077080234257,0.18458583818819835,0.18684460311434717,0.18364813755415016,0.17749231598929727,0.17143527629784786,0.16887022247197223,0.17177595721684846,0.1801223475199677,0.1916537402029642,0.20207893767315713,0.2070200198015639,0.20289788965687774,0.1885456689048152,0.16610426577974993,0.1405923197275444,0.11975548941194632,0.11112675486401183,0.11971950972537496,0.1460034914073094,0.18464067516582391,0.22715566938739232,0.2632933386710326,0.28462466181410034,0.28737461987908947,0.2736817090116192,0.25068701795145965,0.22765499247555546,0.21213544883655397,0.2066571531285301,0.20686343394969353,0.20477972776260608,0.19003780801104758,0.1557147559843666,0.10248764672794422,0.03973939515732282,-0.015224144990384202,-0.04444333691339278,-0.035552690156446326,0.012331650080781138,0.08596700711888218,0.16061053363698954,0.20618677541497843,0.19690619377916627,0.12040538818475947,-0.0165830949103223,-0.1878046065806022,-0.35368922938172037,-0.4715928744291428,-0.5076522625603679,-0.4466466251741711,-0.29638732903192805,-0.0863308034957028,0.1403774105106887,0.33837373934452386,0.4717522328207309,0.5231487819609807,0.49668420097418275,0.4155680767683251,0.3146535717607046,0.2303621435395609,0.19142170817382664,0.21158666063458453,0.2874100059939695,0.4004050025100822,0.5226603457705634,0.6246130300208868,0.681805984564143,0.6803059122621519,0.6190389992947529,0.5089199455952815,0.3697531015077411,0.2249227287634189,0.09631682812656885,0.0,0.0,0.0,0.0,0.0,0.0,0.0,0.0,0.0,0.0,0.0,0.0,0.0,0.0,0.0,0.0,0.0,0.0,0.0,0.0,0.0,0.0,0.0,0.0,0.0,0.0,0.0,0.0,0.0,0.0,0.0,0.0,0.0,0.0,0.0,0.0,0.0,0.0,0.0,0.0,0.0,0.0,0.0,0.0,0.0,0.0,0.0,0.0,0.0,0.0,0.0,0.0,0.0,0.0,0.0
0.9513490081220931,1.0722173037629843,1.1210900757242037,1.0970973762384586,1.0108838663030577,0.8811579286325192,0.7299316915446914,0.5779732848652284,0.4412582060600613,0.3293197956134554,0.2453839238334434,0.18764977844076586,0.15183326531991737,0.13267134320637278,0.12529353987369027,0.12576250968572067,0.1312050173178278,0.1391423058340808,0.14763571115368884,0.15524032141730348,0.16118823787827088,0.16527895459067932,0.16851614147875496,0.1721210317121787,0.1770035304932557,0.18312591339967726,0.18894954803603847,0.19255777505359373,0.19186077928056,0.18580873799832018,0.17523781982837328,0.16272180025854732,0.1530792441222255,0.15116644724359235,0.16036157779708768,0.1811033866029014,0.20970514747746183,0.2408071498037633,0.26769953674962854,0.28480572034014767,0.2894800261722177,0.28188671320028164,0.2670216139925483,0.2508345692092414,0.2381770778126037,0.23057712885669743,0.2253270918533661,0.21641451318141164,0.19711690243724236,0.16336454298823835,0.11654022738975858,0.06395095313642164,0.019135064669841724,-0.004466461486896618,0.002466784518668455,0.040929490035991854,0.10128318370745129,0.1665263430732435,0.21482857454776114,0.22718704417076258,0.19407056957553667,0.11934105159307865,0.020582512685651592,-0.07610728911494245,-0.14353067139506703,-0.1616399953333898,-0.12372081180254416,-0.03805216303562495,0.07471653186947874,0.18845996917610908,0.2798158030615417,0.33495027537600724,0.3530510410379271,0.344514716766948,0.3259400186431676,0.313359842274022,0.3164213492988267,0.33621269952470834,0.3662552997280526,0.3973247856165505,0.42315335031123763,0.4445099017245402,0.4702203187423626,0.5133536930262615,0.5851516542603594,0.6883483428084721,0.8127315979272117,0.9355635569538907,1.0260998692760708,1.0543676563577875,1.0006505165814363,0.8624687197100098,0.6573817744447925,0.4186273204869362,0.1869594055399461,0.0,0.0,0.0,0.0,0.0,0.0,0.0,0.0,0.0,0.0,0.0,0.0,0.0,0.0,0.0,0.0,0.0,0.0,0.0,0.0,0.0,0.0,0.0,0.0,0.0,0.0,0.0,0.0,0.0,0.0,0.0,0.0,0.0,0.0,0.0,0.0,0.0,0.0,0.0,0.0,0.0,0.0,0.0,0.0,0.0,0.0,0.0,0.0,0.0,0.0,0.0,0.0,0.0,0.0,0.0
1.0006505165814363,1.0951382686768494,1.1075802830373649,1.044705141353055,0.9258501571090668,0.7772238964100628,0.6251034880074969,0.49037886948006143,0.38494309913885044,0.311270855691644,0.2644678414342134,0.23575767036733522,0.21621608104870738,0.199393819556833,0.1824428905826312,0.1656930957090732,0.15109881809594902,0.14096275502944722,0.1364012881897456,0.1369589035365957,0.14092989267152145,0.14650578467799408,0.15166122885378192,0.15552335797334785,0.15836239512171144,0.1613329726184418,0.16564997446106305,0.1726784343421969,0.18276840753492413,0.19503731568274116,0.2073484769902252,0.21640124820219803,0.2193431377403384,0.2140714571968998,0.200278260654405,0.17995821516609142,0.15689147428686856,0.13702857757094633,0.12613266738606732,0.1282970394214696,0.1445171070776812,0.1714911104442136,0.2040764554619432,0.23553669792956733,0.2600160774877405,0.2743598505234847,0.27891883345278934,0.276959167128311,0.2728394038974972,0.2696511935875367,0.26732093809773916,0.2615689563401769,0.24716225629201044,0.21811188561926964,0.17198607968238147,0.11249294457026517,0.04954042391246888,-0.0014624059657058278,-0.026100667067552857,-0.01552023242250928,0.029347248270638768,0.09614782583691081,0.16377121982593668,0.2071884999404446,0.20515184855677526,0.14731736410897986,0.038598923033512145,-0.10036904212524292,-0.2381546630346965,-0.34036339994407094,-0.3788731956198402,-0.3397118627280025,-0.22685606105948253,-0.06174082565568008,0.12242553537112723,0.2893148315941722,0.4086940291346891,0.4641371166362993,0.4561769610313816,0.40142707549309153,0.3274445143579658,0.264913383329879,0.2398905024387948,0.2667472885714217,0.34503682171485134,0.4599982187962399,0.5864413353203851,0.6954013278817803,0.7606767901995475,0.7650421887325206,0.7039749638234083,0.5862256729752003,0.4316601632265109,0.2660694279766087,0.11536855634656637,0.0,0.0,0.0,0.0,0.0,0.0,0.0,0.0,0.0,0.0,0.0,0.0,0.0,0.0,0.0,0.0,0.0,0.0,0.0,0.0,0.0,0.0,0.0,0.0,0.0,0.0,0.0,0.0,0.0,0.0,0.0,0.0,0.0,0.0,0.0,0.0,0.0,0.0,0.0,0.0,0.0,0.0,0.0,0.0,0.0,0.0,0.0,0.0,0.0,0.0,0.0,0.0,0.0,0.0,0.0
1.0001121173783418,1.1025909152484612,1.126523648845994,1.0776256212530158,0.9734700154257507,0.8379957704322014,0.695176729108897,0.5638817144617547,0.4548983696033964,0.37083908772774293,0.3083101329323749,0.26122632845904536,0.2239806758325717,0.19340223717695046,0.1691132073147559,0.15250304775846613,0.14504213142572855,0.14672932550460574,0.1554299012542923,0.16724018113157055,0.17768355794096444,0.18347176776665583,0.1827756343342436,0.17626650590604617,0.1665218545026905,0.1569956952373342,0.15053097252725306,0.1491643910096339,0.15305411602468436,0.16071930726819206,0.1695812592555966,0.17653093915450607,0.17934158701229239,0.1767780340904268,0.16898767646104423,0.15744259982824077,0.144279535839993,0.13275210979047045,0.12585515397227484,0.12584773118713719,0.13371389081098398,0.14837826948407623,0.1684193429743126,0.19134188859279905,0.21448250808678748,0.23553006855879158,0.25277298097133666,0.2649872222134303,0.27104834759364693,0.26950998707798773,0.2584604086262497,0.23538009277451935,0.20003009807959773,0.15306283301699036,0.0980168399451301,0.04164978091100336,-0.0073893546769788895,-0.03905066665183709,-0.04693900572039642,-0.03018379522128777,0.005158583754373033,0.04648517702442086,0.07792611944205524,0.08384468327333836,0.05394594653467921,-0.012831065820643264,-0.10677500117597856,-0.208500471159204,-0.2936200734319573,-0.33871289842444746,-0.32761703087868654,-0.2562152901752962,-0.13378573835066992,0.018405240990265692,0.1722886596295105,0.29984905132674594,0.37989926664496143,0.40343859221696543,0.37520027881195894,0.31223296458096744,0.23930848195096088,0.18245193035994062,0.16274996282927734,0.1908512474009309,0.26471585466260944,0.3703308791785729,0.4851603212439561,0.5838562835864736,0.6437879799989248,0.6502771914350863,0.5996973134191141,0.49986574563464914,0.3681304712891741,0.22682807084219997,0.09828106653102196,0.0,0.0,0.0,0.0,0.0,0.0,0.0,0.0,0.0,0.0,0.0,0.0,0.0,0.0,0.0,0.0,0.0,0.0,0.0,0.0,0.0,0.0,0.0,0.0,0.0,0.0,0.0,0.0,0.0,0.0,0.0,0.0,0.0,0.0,0.0,0.0,0.0,0.0,0.0,0.0,0.0,0.0,0.0,0.0,0.0,0.0,0.0,0.0,0.0,0.0,0.0,0.0,0.0,0.0,0.0
0.9261468090286505,1.0388447472616529,1.0808542519026496,1.0526970469782457,0.9660989899505609,0.8402333302659373,0.6968013087962325,0.5553258240065468,0.4298574792696717,0.327639486498141,0.24968971899036577,0.19276694612915277,0.15158461350522331,0.12102125832904477,0.09735642012247651,0.07860873912027525,0.06419596799062403,0.054094349266474676,0.048282081669308786,0.04636831990113101,0.04759399728941821,0.05053492645907959,0.05490252689879802,0.060454339509511776,0.06711142632059143,0.07462585081702518,0.08192015437421682,0.08821312246967875,0.092408910875525,0.09373315375263834,0.09210320390367023,0.08812678473385696,0.08323856808072934,0.07887344504045324,0.07588304546181099,0.0740788549650232,0.07205643376378405,0.06830589773952932,0.06175326188537359,0.05282262337491867,0.04394942783289486,0.03896355480220867,0.04299439660027856,0.05994793813698536,0.09087778083723708,0.13277143616143627,0.17853739472575864,0.2184140970082715,0.24252023874587522,0.24380234534602221,0.22039390002164733,0.17602371046278872,0.12081310727684429,0.06614220481290171,0.021983105215439235,-0.0062261239242015825,-0.019648781792667665,-0.023837967222253145,-0.028209860099372545,-0.041182890685528474,-0.06613826189357432,-0.09911489035979677,-0.12852726717612104,-0.13880776119054336,-0.1150830158432095,-0.04841417637138075,0.06035378974481426,0.19973105915405767,0.3496148544747241,0.48623260725941164,0.5881418599697472,0.6414604422707684,0.6428801197306667,0.5993577397838113,0.5251580470005556,0.4372329666916813,0.35058329812591627,0.2753111292472758,0.2156411315825965,0.17139759555448697,0.1406676062707257,0.12233241766903155,0.1175643699243244,0.12908598052706133,0.15921816138008169,0.2072788169543215,0.26763289027499443,0.3296457807667953,0.3793896871508424,0.4032491159663334,0.3919566947032965,0.3436963178969929,0.2652572085233045,0.17046445961412499,0.07663831272597935,0.0,0.0,0.0,0.0,0.0,0.0,0.0,0.0,0.0,0.0,0.0,0.0,0.0,0.0,0.0,0.0,0.0,0.0,0.0,0.0,0.0,0.0,0.0,0.0,0.0,0.0,0.0,0.0,0.0,0.0,0.0,0.0,0.0,0.0,0.0,0.0,0.0,0.0,0.0,0.0,0.0,0.0,0.0,0.0,0.0,0.0,0.0,0.0,0.0,0.0,0.0,0.0,0.0,0.0,0.0
0.5881418599697472,0.638885117742448,0.6407915233571971,0.5990306862724994,0.5259338684281284,0.4372329666916813,0.34801604052126567,0.2696492970327091,0.20839941236793308,0.1658686018610503,0.1406676062707257,0.1304326345577005,0.13316789876575072,0.14768149813981749,0.17297991699623136,0.2072788169543215,0.247408310029403,0.2889867205666918,0.3278136623346416,0.36169400212767494,0.39195669470329647,0.4230749889007541,0.46326820257799967,0.5199637252276286,0.5964236660129397,0.6886217101586344,0.7838904365432771,0.8634786758050995,0.9064223599718549,0.8956608270403044,0.8236438108458968,0.695500010360164,0.5292672396541168,0.35152839083001414,0.19082201990977707,0.07031923944331236,0.0019134996002313708,-0.015258157767688341,0.0064238152373734935,0.0482485268981699,0.09161339626465935,0.1232421804470209,0.13916118837914424,0.14325981493494583,0.14389750142099672,0.14896260885259996,0.16168651506831033,0.17891709566707703,0.19249807350214257,0.19309283145363842,0.17475686838329732,0.13792112460292152,0.09102363023250876,0.04627458286706304,0.015339947179757204,0.004298936561836122,0.010349598140998801,0.02309694822885405,0.027526626257264777,0.010903103503384406,-0.03078268239880658,-0.08914574281403376,-0.14390130646077745,-0.16871654637968492,-0.13969344260028235,-0.044239748932731096,0.11285047866633291,0.30904333666898476,0.508569255460003,0.6720736602104371,0.7675340347994378,0.778920749162732,0.7109533986837652,0.5860135375864797,0.4372637727503632,0.29875880406424205,0.19582404211043578,0.14067199812249714,0.12993836157526822,0.14946298037653027,0.18132030709573746,0.21049568556838127,0.23112729600656684,0.24509375861837554,0.25982465111511643,0.28320478498136636,0.31850219110800004,0.3616238168819158,0.4013619510311217,0.42302760721714033,0.4137611804833526,0.3674907868040014,0.287915596530341,0.18781952302432403,0.08561973764438115,0.0,0.0,0.0,0.0,0.0,0.0,0.0,0.0,0.0,0.0,0.0,0.0,0.0,0.0,0.0,0.0,0.0,0.0,0.0,0.0,0.0,0.0,0.0,0.0,0.0,0.0,0.0,0.0,0.0,0.0,0.0,0.0,0.0,0.0,0.0,0.0,0.0,0.0,0.0,0.0,0.0,0.0,0.0,0.0,0.0,0.0,0.0,0.0,0.0,0.0,0.0,0.0,0.0,0.0,0.0
0.8236438108458968,0.7763744500342825,0.6384792359639463,0.44470611297048207,0.24077093635643096,0.07031923944331238,-0.03700889999985231,-0.07156426199747383,-0.044231050906259395,0.019944126125171834,0.09161339626465934,0.1466357720744362,0.17371179436120723,0.1748567791797777,0.16178100276592508,0.14896260885259996,0.14600397820948194,0.1552835674447978,0.1704059956235858,0.18027819528118158,0.1747568683832973,0.14886117247432856,0.10737583771589493,0.06140111961461483,0.024001432797860097,0.004298936561836127,0.0026739184241435913,0.011215379113461493,0.016090529918634765,0.004054805794654068,-0.03078268239880658,-0.08258009578596243,-0.13343734035402047,-0.15832469176141986,-0.13326161321643135,-0.0442397489327311,0.10629660898329649,0.2980875886611543,0.49717365973851574,0.6647015103346783,0.7675340347994378,0.7872880494529254,0.7252268823431725,0.6011579085302161,0.4472532772140316,0.29875880406424205,0.1846131075838608,0.12079032995711216,0.10809647372132408,0.13458967559894805,0.18132030709573746,0.2287629146548457,0.26413437902427217,0.2821988965137454,0.2858148291276255,0.2832047849813664,0.2840110238291142,0.2958993868774902,0.3223739036617061,0.3627763917755182,0.4137611804833526,0.471330517270611,0.532684256470665,0.5965449479482638,0.6625851802876284,0.7299899439542157,0.7959259706733308,0.8551205887130842,0.8999287427262995,0.9220431057727215,0.9146716440863232,0.8744720342538563,0.8030760279959414,0.7065893755665006,0.5945352589905905,0.4778781988594615,0.3668910602643928,0.26946857571278754,0.1902364898188373,0.1305658477710917,0.08926767229992288,0.06362038378998411,0.05026400455835167,0.04592809348875862,0.04767588803264973,0.05289943872778566,0.05924386559680676,0.0644954958716813,0.0668248931225598,0.06499139878294677,0.058592191503924695,0.04778900222269794,0.034729610061127625,0.021247953645656407,0.009181820175794494,0.0,0.0,0.0,0.0,0.0,0.0,0.0,0.0,0.0,0.0,0.0,0.0,0.0,0.0,0.0,0.0,0.0,0.0,0.0,0.0,0.0,0.0,0.0,0.0,0.0,0.0,0.0,0.0,0.0,0.0,0.0,0.0,0.0,0.0,0.0,0.0,0.0,0.0,0.0,0.0,0.0,0.0,0.0,0.0,0.0,0.0,0.0,0.0,0.0,0.0,0.0,0.0,0.0,0.0,0.0
0.7675340347994378,0.7772006406956452,0.7111732800490312,0.5889379932092662,0.44064520684705616,0.29875880406424205,0.18966553772282913,0.1279625901446819,0.1143818212887276,0.13798626773186706,0.18132030709573746,0.22654720720690893,0.2608928659548089,0.2792712589231822,0.2841835291310064,0.2832047849813664,0.2852835437883802,0.29768083400088324,0.32389192818196544,0.36355921015556586,0.4137611804833526,0.4708206750211268,0.5320354396063574,0.5960665113748653,0.6623918012767539,0.7299899439542157,0.7957992867865684,0.8546412228690258,0.8991707742354506,0.9213985111498556,0.9146716440863232,0.8754594129113648,0.8049014761052974,0.7086588247012274,0.5959762987251312,0.4778781988594615,0.3651168590044484,0.2662756410178779,0.1866920643213091,0.12813681270233743,0.08926767229992288,0.06663895041180845,0.05571103470992442,0.052014302751108764,0.051892317008962865,0.05289943872778565,0.053834466428016196,0.05448816389667978,0.05522245085579789,0.05651448995113856,0.0585921915039247,0.060863060298204194,0.06348639686905458,0.06565015068483002,0.06670969555381615,0.06659667979493153,0.0658272929363499,0.06590963897848022,0.06808832210592354,0.07303891968378344,0.08041971435855269,0.08865836564637379,0.0956269624977582,0.09888285829516219,0.09675321091519214,0.0891489881189217,0.07780989474239837,0.06663576618603484,0.060109836277389715,0.06233596535140607,0.07578386052130773,0.100163327919416,0.13297353252220162,0.16892847990145732,0.2015195036589889,0.22454539828941403,0.23315941015453498,0.2262369791130167,0.2046998303026407,0.17175771374827198,0.13200870221653968,0.08986269800724389,0.050364500138428456,0.016225979991222557,-0.011367670494207635,-0.032345864912379695,-0.04742510981887006,-0.056683923685836565,-0.06056974695624723,-0.0594653669709202,-0.05385974115770995,-0.0446138454900203,-0.03290893008280431,-0.0204122250760315,-0.008925773671942645,0.0,0.0,0.0,0.0,0.0,0.0,0.0,0.0,0.0,0.0,0.0,0.0,0.0,0.0,0.0,0.0,0.0,0.0,0.0,0.0,0.0,0.0,0.0,0.0,0.0,0.0,0.0,0.0,0.0,0.0,0.0,0.0,0.0,0.0,0.0,0.0,0.0,0.0,0.0,0.0,0.0,0.0,0.0,0.0,0.0,0.0,0.0,0.0,0.0,0.0,0.0,0.0,0.0,0.0,0.0
0.9146716440863232,0.958510900936056,0.9167351443658721,0.8038757338233318,0.6469493734757938,0.47787819885946153,0.3254269267537762,0.20883255235768897,0.13496511055646557,0.09919331390934161,0.08926767229992287,0.09065337500332085,0.09126335218439809,0.08461318003646058,0.07039552638880907,0.052899438727785665,0.03804263398449575,0.030893626039159156,0.033416378889276885,0.04405000216251569,0.05859219150392469,0.07226503607555537,0.08061663088218633,0.08161063453474578,0.07593791522945208,0.06659667979493154,0.057622752940873066,0.05313954947530794,0.05570499587819844,0.06555240295558254,0.08041971435855269,0.09586681427563262,0.10722024703939351,0.11051548307047548,0.10403449402010627,0.0891489881189217,0.06994749582156465,0.053224264575094174,0.04588554559966077,0.0529633692159402,0.07578386052130773,0.11058192048096556,0.15085621432594562,0.18797840453630285,0.21410718034274318,0.22454539828941403,0.21901371733153396,0.201333159663794,0.1775972565182465,0.15351837532557583,0.13200870221653968,0.11156036152475445,0.0887565976643158,0.05831705044529824,0.017246883951073332,-0.032345864912379715,-0.08253427767028217,-0.12022798607572559,-0.1323097645705961,-0.11014880558832556,-0.05385974115770994,0.02575784332306586,0.10888220851206973,0.17122163683585945,0.1909468585549618,0.15556381903541003,0.06657816138128649,-0.05951524881871759,-0.19478639370437512,-0.3067105981325371,-0.36662211152777596,-0.35735648922684926,-0.2777321565044518,-0.1429951539858229,0.019291766230760565,0.1764697650434576,0.29910419023901963,0.36834495214060015,0.38000073036611065,0.34489422042160395,0.28530694152190034,0.22861560273126513,0.20008457210006209,0.21613381385295136,0.2803145390806301,0.382540257597982,0.5016599534827981,0.6108952266483606,0.684169636132131,0.7024485568651508,0.6581960641749416,0.5569528594961404,0.41593591093376164,0.25958348761797584,0.11379029244757324,0.0,0.0,0.0,0.0,0.0,0.0,0.0,0.0,0.0,0.0,0.0,0.0,0.0,0.0,0.0,0.0,0.0,0.0,0.0,0.0,0.0,0.0,0.0,0.0,0.0,0.0,0.0,0.0,0.0,0.0,0.0,0.0,0.0,0.0,0.0,0.0,0.0,0.0,0.0,0.0,0.0,0.0,0.0,0.0,0.0,0.0,0.0,0.0,0.0,0.0,0.0,0.0,0.0,0.0,0.0
0.9443925177286018,1.0314146752824278,1.039884059544201,0.9761451890080792,0.8585097432604049,0.7118136101742168,0.5610465379695926,0.4260122311106368,0.31810683082259256,0.2399407105854426,0.18732377250129098,0.15259226203802845,0.12800102686654172,0.10813609800476445,0.09080479338852257,0.07648753366153709,0.06694468619647533,0.06354853454354649,0.06632643923052212,0.0737387793126164,0.08324356505531674,0.09158289479662571,0.09767577660833202,0.10148577408255884,0.10410944257832207,0.10698479472762525,0.1107633293993622,0.11551807531971875,0.12020062853201015,0.12331573452782302,0.12368350293205847,0.12089234639845049,0.11591998119800308,0.11036129899224836,0.10571382523195635,0.10258266873614287,0.10014168097709361,0.09706044955170628,0.09205494606130488,0.08517744323466724,0.07861022821881562,0.07619810598227032,0.08331715877451214,0.10401263793093696,0.1389799510978492,0.1841005066467101,0.23054164444817812,0.266721084523364,0.281725033198405,0.2691097790693305,0.229688325353791,0.17160248409825996,0.10999950675674917,0.060130898735980313,0.03298526498896683,0.031134264229968307,0.046940008152794865,0.06612259832219952,0.07127890427178485,0.0495133056904249,-0.001427892002499493,-0.07039084145656896,-0.13428243199073772,-0.1649279742940742,-0.1379647311785494,-0.041665092007679254,0.11750564091294965,0.3149467964705756,0.5134265095914442,0.6730681502998178,0.7624120802152021,0.7670545578187133,0.693344610552757,0.5654925324147282,0.4177783397359766,0.2841964662240812,0.1889962939125989,0.14141410734374837,0.13533506309788695,0.15430763771952807,0.1792845704676713,0.19611838135776227,0.20045520562339197,0.19767724520950528,0.19915001338430968,0.21601274823214353,0.2531563982254315,0.3060852149978195,0.3612375230096589,0.4003643892187979,0.40687454851214894,0.3718189421899057,0.2975420382315183,0.19720859081659842,0.09099335274642907,0.0,0.0,0.0,0.0,0.0,0.0,0.0,0.0,0.0,0.0,0.0,0.0,0.0,0.0,0.0,0.0,0.0,0.0,0.0,0.0,0.0,0.0,0.0,0.0,0.0,0.0,0.0,0.0,0.0,0.0,0.0,0.0,0.0,0.0,0.0,0.0,0.0,0.0,0.0,0.0,0.0,0.0,0.0,0.0,0.0,0.0,0.0,0.0,0.0,0.0,0.0,0.0,0.0,0.0,0.0
0.7624120802152021,0.7653090434502062,0.6933378452297974,0.5680012413282128,0.4207837643527111,0.2841964662240812,0.18317058766901018,0.12959096423218794,0.12099709730306624,0.14378186338351406,0.1792845704676713,0.21048719450696182,0.2273617805178876,0.2288261658411144,0.22150720839765325,0.21601274823214353,0.22235632874786457,0.24648380793982777,0.2886730611974017,0.34440304427540547,0.4068745485121489,0.4698204017063559,0.5300782890080641,0.5877247547008825,0.6449010298754554,0.7034831264259864,0.7626809907345355,0.818011887414246,0.8614882927397957,0.8835938623193699,0.8760933310457854,0.8346981360945354,0.7607440631088916,0.6611527386676289,0.5468722918093757,0.43029168766557674,0.32254653516097487,0.23129679281486695,0.1599601630416587,0.10807171003724247,0.07258491042297555,0.04942677179094333,0.03502206577658886,0.026837885518328018,0.023387556688204487,0.023724721264043656,0.02685508463875734,0.03142087225417495,0.03582442532321949,0.038710862357025026,0.039536772151212304,0.0385035130253198,0.03791967233905148,0.03960584967902285,0.0447779914945917,0.05335785880188063,0.06355665341467773,0.072779326620857,0.0778132339429403,0.07634013537109789,0.06805516397411693,0.055088044953266774,0.041988564366729396,0.034048262045467015,0.03578054222348845,0.049327180466483114,0.07341062169640274,0.10385640401209986,0.13419055875666094,0.15772424330780682,0.16954131032391873,0.1676898346780218,0.1543199555605575,0.1337978941881347,0.11143088756866706,0.09160097757847886,0.0759819568023785,0.06447075090172943,0.05403782722430231,0.040975291710725864,0.022797991015367575,-0.0007798931477019256,-0.025727051101245724,-0.046786405049478716,-0.05835204595459075,-0.05643184689653647,-0.040448732086994635,-0.01300330401609353,0.019630462036082298,0.04962276756492862,0.06985397154471525,0.07592364799374077,0.06745845534380648,0.04785719216135861,0.02313620126514522,0.0,0.0,0.0,0.0,0.0,0.0,0.0,0.0,0.0,0.0,0.0,0.0,0.0,0.0,0.0,0.0,0.0,0.0,0.0,0.0,0.0,0.0,0.0,0.0,0.0,0.0,0.0,0.0,0.0,0.0,0.0,0.0,0.0,0.0,0.0,0.0,0.0,0.0,0.0,0.0,0.0,0.0,0.0,0.0,0.0,0.0,0.0,0.0,0.0,0.0,0.0,0.0,0.0,0.0,0.0
0.8760933310457854,0.9110094191264665,0.8630363279466914,0.7479198945361779,0.5931808191084806,0.4302916876655768,0.28664154555683696,0.17940119818267808,0.11327042930947435,0.08195980796768731,0.07258491042297553,0.07109190562490364,0.06711002807988554,0.05627975460146589,0.040113454158483136,0.023724721264043666,0.013004937455281801,0.010944170969547685,0.01715505024311011,0.028223321499285837,0.03953677215121229,0.04729005772244179,0.0504251122918611,0.05047497760684796,0.05052352608689186,0.05335785880188064,0.05963242803979834,0.06772980841318728,0.07403812537976126,0.07478285583331985,0.06805516397411693,0.05494079436389081,0.040362009192879654,0.031019734200249286,0.03302906547009626,0.04932718046648313,0.07761834702261815,0.1119540335475046,0.14361546298215772,0.16439753310156,0.16954131032391873,0.15869403495498782,0.1378005566448311,0.11520228974878528,0.0985738068922164,0.09160097757847889,0.09222928701590617,0.09333816298765861,0.08575393336059406,0.06253047315635366,0.02279799101536756,-0.026960739885615266,-0.07256669435194038,-0.09873913459940387,-0.09410935985298623,-0.05643184689653645,0.004664316526283561,0.06999474340322369,0.11512472575201245,0.1186357191259685,0.06985397154471522,-0.026377888564037943,-0.1495818434176273,-0.26900617977219443,-0.35239797398176015,-0.37569075239981453,-0.33035310044346483,-0.22586169093826736,-0.08662176578261596,0.055768293293420035,0.1721593452716905,0.24414854883124218,0.26844989616467896,0.2558618687247291,0.22584677240106346,0.19881287515965926,0.18905977503627264,0.2010655286065035,0.22989240509329978,0.2655457370930653,0.2989856019452131,0.32713090820412316,0.3548564425933426,0.3926459146909607,0.4512870378832327,0.5354993439906104,0.6392260496221889,0.7448804156572876,0.8269313562472447,0.8592307140039628,0.8234619843755087,0.7157277887015392,0.5493783046844646,0.3518836229121337,0.15789653093071557,0.0,0.0,0.0,0.0,0.0,0.0,0.0,0.0,0.0,0.0,0.0,0.0,0.0,0.0,0.0,0.0,0.0,0.0,0.0,0.0,0.0,0.0,0.0,0.0,0.0,0.0,0.0,0.0,0.0,0.0,0.0,0.0,0.0,0.0,0.0,0.0,0.0,0.0,0.0,0.0,0.0,0.0,0.0,0.0,0.0,0.0,0.0,0.0,0.0,0.0,0.0,0.0,0.0,0.0,0.0
0.8234619843755087,0.9066612355896031,0.922476701640844,0.8744718551700391,0.77652553641177,0.6486193575864175,0.511855415846108,0.383674749253134,0.2752789613088222,0.1909319319891895,0.12921720956675703,0.08550016033106153,0.054207363917199144,0.03089064355025062,0.012994818219595321,-0.0003392175675706137,-0.009791448877028184,-0.014683711974909537,-0.015189435131569397,-0.012156487848955257,-0.006949831278170581,-0.001422341097419666,0.003530882972753957,0.007414961606842846,0.010309289277124718,0.012627154432864994,0.014515512728166542,0.01635730167045584,0.017991351145973642,0.018835061234735082,0.018027655433685494,0.014379650048646683,0.007913990753814881,-0.0005361895984679064,-0.008914365864833669,-0.014130351164550655,-0.013183029439354134,-0.0028515857754882763,0.018025935198897922,0.04777112847227578,0.08149689443070059,0.11106609094560015,0.1289850510109874,0.1291992016246244,0.1097346838916039,0.07389811973269593,0.029824529418803317,-0.011734909615487558,-0.040843063578758554,-0.05193597907632055,-0.04620948597654669,-0.03220710883976536,-0.021765631910512357,-0.02765993885938088,-0.05758737278633959,-0.1099570056432227,-0.17273678698013217,-0.22425870808199866,-0.24024707639527626,-0.20034516523674498,-0.09490190290355577,0.07063312811436175,0.27560034481605866,0.487757151620815,0.6707627118304319,0.792974002733331,0.8352417938749694,0.7955549217068307,0.6892873032920339,0.5450412522252489,0.3972941096292837,0.2778844463347522,0.20858151207690737,0.19665779694704844,0.23440695141864148,0.30255147632344254,0.3764395735424844,0.4333126811223719,0.4586079628631856,0.4497578717497077,0.41649270551648115,0.37762802944276225,0.3552817715917703,0.3679699358362598,0.4245960965180094,0.5209388327941384,0.6397136254242244,0.7542846803585397,0.83523596202231,0.8579867384116132,0.8094452231148291,0.6917786279013604,0.5224241575046157,0.32974532119203304,0.14611406763856777,0.0,0.0,0.0,0.0,0.0,0.0,0.0,0.0,0.0,0.0,0.0,0.0,0.0,0.0,0.0,0.0,0.0,0.0,0.0,0.0,0.0,0.0,0.0,0.0,0.0,0.0,0.0,0.0,0.0,0.0,0.0,0.0,0.0,0.0,0.0,0.0,0.0,0.0,0.0,0.0,0.0,0.0,0.0,0.0,0.0,0.0,0.0,0.0,0.0,0.0,0.0,0.0,0.0,0.0,0.0
0.792974002733331,0.8169817849509494,0.7669670451374134,0.6608351800797995,0.5271795318933477,0.3972941096292837,0.29691154470872116,0.24091721480776276,0.23085643518743765,0.2568874051890072,0.30255147632344254,0.3504821270911307,0.3880010079547652,0.4095377863468347,0.41678848999311074,0.4164927055164812,0.41697077628843077,0.4253991753544315,0.44566388023674736,0.47817932667426793,0.5209388327941384,0.5708829026150894,0.6258936792773535,0.6846974184578584,0.746425489301111,0.8094452231148291,0.8699976205054059,0.9226437755646497,0.9603061481446699,0.975954029984355,0.9644988181615309,0.924278650420062,0.8580830544731619,0.7724755878713063,0.6763988292730027,0.5791860463187078,0.48834428193403057,0.4093030413641245,0.34433784440769893,0.2932409392686162,0.254301365792103,0.2251722325023046,0.20422757216320803,0.19042051586430203,0.18321088005702588,0.18210410143235267,0.1861884256606288,0.19390151320793958,0.20313210224002815,0.21161359468051053,0.21745274108668244,0.2191865364973281,0.2175853960874867,0.2135339527666231,0.20847828233461824,0.20399025164285198,0.20105114590562376,0.20039692921275643,0.20127769851245947,0.20198076604747306,0.20035861571437066,0.19444448841412199,0.1838649838281127,0.16966971011882842,0.15481024124257733,0.14376058578078768,0.1413121819172089,0.15197441332757844,0.17740753690052918,0.21574660031671608,0.26137569673887273,0.30547139197589446,0.338824553810728,0.3529050923988293,0.3428087333768729,0.3090487087998327,0.25761959990957684,0.20048871233439028,0.15099029181842868,0.12133945928172743,0.11952326116445364,0.14663912703161414,0.1982098378857608,0.26288602722696747,0.32610879525397574,0.3736864144301302,0.39484272603881443,0.38559082363487907,0.3478307661458884,0.28887227751084615,0.21922717583212506,0.14975239055133197,0.08968352682954583,0.04438311273542238,0.015168861499136203,0.0,0.0,0.0,0.0,0.0,0.0,0.0,0.0,0.0,0.0,0.0,0.0,0.0,0.0,0.0,0.0,0.0,0.0,0.0,0.0,0.0,0.0,0.0,0.0,0.0,0.0,0.0,0.0,0.0,0.0,0.0,0.0,0.0,0.0,0.0,0.0,0.0,0.0,0.0,0.0,0.0,0.0,0.0,0.0,0.0,0.0,0.0,0.0,0.0,0.0,0.0,0.0,0.0,0.0,0.0
0.9644988181615309,1.0153009469399061,0.9806001966143634,0.8767514505334718,0.7322020930582626,0.5791860463187078,0.4449262807182447,0.34649144628200707,0.2878032442321978,0.261623482419822,0.254301365792103,0.25137572710968725,0.24299714321899588,0.22594692664466048,0.20336263608436292,0.1821041014323527,0.1688629770360317,0.16795252521738896,0.17907296436511788,0.19780422089273694,0.21745274108668244,0.23109297398894355,0.2351865261920586,0.22959972939573065,0.21753100266537145,0.203990251642852,0.19298298018884294,0.18804679953656572,0.18952058496200028,0.19501346010083187,0.20035861571437066,0.2003068818876099,0.19275859188915823,0.1780417917343683,0.1597033459767492,0.14376058578078768,0.13671092954131558,0.1445496707188708,0.16994180285829455,0.2110686001959034,0.26137569673887273,0.31056682492228704,0.3472068891391521,0.36151261606418894,0.34832403731574396,0.3090487087998327,0.25194501609127373,0.19047892849662265,0.14005199345246763,0.11393028054232895,0.11952326116445364,0.15564467459453232,0.2143989706447493,0.2809935042889219,0.3387289803479188,0.3736864144301302,0.37825937525179804,0.35414662222862303,0.3102297289133757,0.26033645496167096,0.21922717583212503,0.19842308767458058,0.20383277879506156,0.23416479155043113,0.2823465035345329,0.338311809686601,0.39232486549267837,0.4383048666591086,0.47500486947482046,0.5061259838221891,0.5386862873649989,0.5802699540417847,0.6366360733933389,0.7089733570959665,0.793159199951761,0.8802634148382118,0.9581961071540392,1.014628834589745,1.0391202109007502,1.0254934831656797,0.9730872173184552,0.886719198138896,0.7760067717177117,0.6529233204194286,0.5296890796390294,0.4166235431434426,0.3205167626917685,0.24425032269783742,0.18673090027703937,0.14414690786261342,0.1115486035949277,0.08428568791793574,0.05966789361746988,0.03674266550271378,0.016283184338504134,0.0,0.0,0.0,0.0,0.0,0.0,0.0,0.0,0.0,0.0,0.0,0.0,0.0,0.0,0.0,0.0,0.0,0.0,0.0,0.0,0.0,0.0,0.0,0.0,0.0,0.0,0.0,0.0,0.0,0.0,0.0,0.0,0.0,0.0,0.0,0.0,0.0,0.0,0.0,0.0,0.0,0.0,0.0,0.0,0.0,0.0,0.0,0.0,0.0,0.0,0.0,0.0,0.0,0.0,0.0
0.9730872173184552,0.9976662884222749,0.9276488339403084,0.7839966393059679,0.6009906713357841,0.41662354314344263,0.262861753250972,0.15853142236292234,0.10677281623004248,0.09719463487973229,0.11154860359492769,0.13073766894424826,0.1407288182488814,0.13581235504087452,0.11848586843747792,0.09661361022957499,0.07964953704871632,0.07372054001814697,0.08032653863451632,0.09618825036378363,0.11514433615271936,0.13059874499585356,0.13875402479996218,0.1391129659517103,0.13421705363893816,0.128029513920945,0.12374427791275593,0.12290448528164405,0.12456439113195343,0.12616096107779853,0.12499487006962483,0.1194145200409013,0.11061757006561504,0.1017476876072783,0.09692089285649333,0.09961050028069311,0.11073050713447358,0.12972465704620154,0.1537816268001518,0.17928644275967456,0.2030912562924108,0.22251190482241417,0.2377193938271893,0.24903633006928133,0.2560622492792717,0.2566215274393844,0.24671589735977587,0.2217990317240646,0.17907988018354984,0.11998019537175654,0.051585865576851554,-0.014384969274286317,-0.06249856595559855,-0.08067792387728831,-0.06407067290776929,-0.0182476712473268,0.04042425743868026,0.08913018053458038,0.10412272181303199,0.06896561924763926,-0.01891031091686848,-0.1454640351921099,-0.28216411776244976,-0.39348622561319496,-0.4468992672366136,-0.4227208631255989,-0.32056139639176956,-0.1598368296723992,0.02537100642076849,0.19626140145988902,0.3204785472451743,0.38090082960694865,0.37958815333096,0.3350493148020987,0.27487552094411016,0.2260407433875819,0.20638318403952466,0.2205292982447565,0.2605971113309985,0.31191105668041463,0.36065223786407863,0.4002870818589855,0.4345001054170323,0.4746776457069353,0.5338736504386167,0.6192318308662351,0.7260875894931393,0.8366238484585667,0.9233554775973278,0.9572279802002834,0.917203235557018,0.7979460365323496,0.6133991528665623,0.3935640781815826,0.17690992044396137,0.0,0.0,0.0,0.0,0.0,0.0,0.0,0.0,0.0,0.0,0.0,0.0,0.0,0.0,0.0,0.0,0.0,0.0,0.0,0.0,0.0,0.0,0.0,0.0,0.0,0.0,0.0,0.0,0.0,0.0,0.0,0.0,0.0,0.0,0.0,0.0,0.0,0.0,0.0,0.0,0.0,0.0,0.0,0.0,0.0,0.0,0.0,0.0,0.0,0.0,0.0,0.0,0.0,0.0,0.0
0.9199948877561498,1.0037993840852655,1.0113419645843202,0.949335826521887,0.8360995045357925,0.6961108003953951,0.5537251664148365,0.4278902705494419,0.3291279674361179,0.25929241349706983,0.21366509843935316,0.1838661182745566,0.16257951151292227,0.14480343487517397,0.12877471027184034,0.11518180483833335,0.10529383375410431,0.10035444737057196,0.10006700695227312,0.10283143247054304,0.10650353966255646,0.10916360331315027,0.11041880460645365,0.11097600885440093,0.11216901480460838,0.11506304605373671,0.11944004505203051,0.1245696195617119,0.12906410686424188,0.13199462532920586,0.13376984452466825,0.13606819356149014,0.1425099110458569,0.15647421728418498,0.17965431893808556,0.2106886437736549,0.24405768974142855,0.27304258358897,0.29014580290284797,0.28987353620634015,0.270670023665249,0.23491831099695135,0.19032656610110213,0.1460402402553691,0.11007917392391772,0.08664324974844599,0.07441397859104068,0.06805290982383484,0.059833346277212256,0.04320333684826594,0.015993798345821004,-0.018320814878475727,-0.04884123430324457,-0.06240742009051329,-0.04670614239735611,0.005502695385929897,0.09293428825203322,0.20628594817243398,0.32821830788818834,0.4380721160931704,0.5170605611699483,0.5528991986395622,0.5431278347266134,0.49482691319724686,0.42250563676774994,0.3440155054784467,0.2758959098325487,0.229828723608506,0.21035741831779356,0.21514701953751078,0.2369362862882717,0.2664031981044345,0.2952767110035536,0.3181298243855505,0.33331021638184194,0.3425794779020742,0.349890809123351,0.36019219099499533,0.3779099734999599,0.4062932052233321,0.4470914430698317,0.5004104455562635,0.5649377852021709,0.637495281536822,0.7130757467840996,0.7849590027987969,0.8451199540062684,0.8856564033677446,0.8996488822782243,0.8828645416874703,0.8349360181689355,0.7596535829846975,0.6649653480611741,0.5608447855513132,0.45758154300043236,0.3638080793090755,0.28497707135301475,0.22292276499287264,0.17600542103676065,0.14036415624776488,0.11148489689827434,0.08565624991890124,0.060943594415146386,0.03735459803099484,0.01636645097282187,0.0,0.0,0.0,0.0,0.0,0.0,0.0,0.0,0.0,0.0,0.0,0.0,0.0,0.0,0.0,0.0,0.0,0.0,0.0,0.0,0.0,0.0,0.0,0.0,0.0,0.0,0.0,0.0,0.0,0.0,0.0,0.0,0.0,0.0,0.0,0.0,0.0,0.0,0.0,0.0,0.0,0.0,0.0,0.0,0.0
0.8349360181689355,0.8567096407983815,0.7976197040759478,0.6756371655820933,0.5201672692668552,0.36380807930907555,0.233889544799163,0.14655489249153958,0.10433790024713022,0.09801438596127528,0.11148489689827433,0.1282463764124916,0.13556026733749885,0.12830072157362654,0.10889756741575655,0.08504456915183746,0.0658880499907715,0.058923189189617184,0.06714985446732924,0.08847414159701822,0.11674344494153077,0.14373622850548443,0.16244001693770044,0.16866117328801983,0.1622411999442076,0.1468911366513177,0.1286040737668395,0.11474413431573251,0.11125078617350523,0.1211770094668669,0.14385837718431066,0.17456326788006515,0.2074510630304241,0.23614142628277113,0.2559221857476265,0.26502848318865263,0.2640325003639698,0.25742697788042235,0.24984135617240477,0.24428090608217767,0.24040752196413884,0.23346701430935768,0.21770182435772353,0.1875069977938325,0.14093185585517634,0.08190747134252485,0.020308447102780184,-0.029726921036475156,-0.05451807400396771,-0.04584206506862648,-0.005031898138537868,0.0551170988829674,0.11448621393709445,0.14887660787659363,0.1383149403507237,0.07407215086955238,-0.03742316751023229,-0.17427787743972262,-0.30516784408901276,-0.3973670724168633,-0.4258904551145496,-0.3806731545287876,-0.2692360575580887,-0.11473874861326744,0.050755476014817204,0.19520868864181445,0.2950325102027429,0.3407671577251507,0.3379681804289338,0.30400303769205306,0.26174768150297184,0.23239124550963416,0.22995239267780407,0.25826666651957547,0.311859806985979,0.37948794648132755,0.44885852141708366,0.5112345223949825,0.5635175475558051,0.6084133374960785,0.6523044048203331,0.70183996138634,0.7609229054231672,0.8281854015266201,0.8967577496523539,0.955705866526829,0.9925997815276847,0.9971704531708827,0.9633156160125931,0.8909514337206627,0.7862035987149166,0.6600869354998175,0.5267527834008983,0.40016407573964263,0.2917693339985515,0.20863423786504373,0.15254847729678833,0.12047607148187633,0.10565020350726809,0.0996390168561738,0.09452384919286747,0.08473020404205128,0.06805921652909336,0.045734314135304203,0.02148259439132056,0.0,0.0,0.0,0.0,0.0,0.0,0.0,0.0,0.0,0.0,0.0,0.0,0.0,0.0,0.0,0.0,0.0,0.0,0.0,0.0,0.0,0.0,0.0,0.0,0.0,0.0,0.0,0.0,0.0,0.0,0.0,0.0,0.0,0.0,0.0,0.0,0.0,0.0,0.0,0.0,0.0,0.0,0.0,0.0,0.0
0.955705866526829,1.0568199285955369,1.0813974532769044,1.0330401694555942,0.9271494590421423,0.7862035987149166,0.6340480234529581,0.49077267762817917,0.36955091264127654,0.275829769202634,0.20863423786504373,0.16282295006031805,0.13266422516570017,0.11317043639675696,0.1010662841837639,0.09452384919286748,0.09256731235067955,0.09363562185750185,0.09586796719645925,0.09739524511995952,0.09713243283892863,0.09527802322691376,0.09388944254559035,0.09580743083361899,0.1034493951956071,0.11743662959536409,0.13551832571375963,0.15362972182540582,0.16658929306786432,0.17021368859726016,0.1631760900257371,0.1475946135846561,0.1298042728489204,0.117673228926075,0.1181521498422386,0.13468128542874272,0.16504771747894467,0.20353079922730108,0.24138842896200624,0.27011085051755085,0.2841820933304051,0.2817680269329822,0.2671092383792835,0.24648878514738976,0.22563704377284863,0.20687678069847673,0.18719816173966747,0.16113435217016708,0.12241926127708411,0.06830468227509934,0.0027503215442554116,-0.06334673571637328,-0.11201418881250443,-0.12602763357870483,-0.0941321551395732,-0.016299095260204132,0.09358551591110578,0.21121093346170935,0.3058468827129398,0.34969694692804193,0.32647895741032656,0.23699859760778358,0.10033546413461002,-0.051296973265834364,-0.18103608195560605,-0.2575005834311702,-0.26331989042238885,-0.19920325788303178,-0.08302130774670764,0.056316054460975554,0.18768918369563645,0.2864799698786058,0.34079221716541597,0.35288909100704824,0.33654754918956686,0.311234199322889,0.2953310863878069,0.30102438578509727,0.33157743485964486,0.3823276921569555,0.44408642985114083,0.5073865795609188,0.5663645907035427,0.6199127872496845,0.6710922660284855,0.7246349357408125,0.7837611248914232,0.8479918256738207,0.9119264177413804,0.9663505222852963,1.0006505165814363,1.0056120114037586,0.9764601142809513,0.913397197462307,0.8216897741278885,0.7102639765830581,0.589518213966605,0.4696511475447015,0.3585954201677156,0.2615107969366581,0.18086684754542717,0.11702018651470178,0.06895316538533681,0.03488757067633397,0.012678000725457751,0.0,0.0,0.0,0.0,0.0,0.0,0.0,0.0,0.0,0.0,0.0,0.0,0.0,0.0,0.0,0.0,0.0,0.0,0.0,0.0,0.0,0.0,0.0,0.0,0.0,0.0,0.0,0.0,0.0,0.0,0.0,0.0,0.0,0.0,0.0,0.0,0.0,0.0,0.0,0.0,0.0,0.0,0.0,0.0,0.0
1.0006505165814363,1.0432400870665437,0.9940957081494957,0.8721340748472167,0.7094117396883582,0.5420088209458115,0.40067126013018395,0.3039347702462873,0.25548236137740843,0.24603130544104432,0.2586172195368733,0.2752115267603951,0.28243949804231266,0.2747439216483186,0.2543948267500775,0.2288706817882955,0.20694006252934746,0.1950169095336093,0.19503105360173048,0.2043369214712429,0.21738020611308764,0.22825063620879157,0.23305160835939248,0.23123161136379425,0.22551431921664625,0.22061768191722486,0.22135892733865423,0.2308772943917807,0.24956248772180809,0.27495013504352567,0.30248317708595573,0.3267754343964211,0.3429250540333447,0.34750720874095403,0.3390607908435514,0.3180815276507768,0.28666858576994037,0.24801092733780575,0.20585815792537002,0.16404369029569374,0.12606496593204605,0.0947057825718642,0.07170889251847887,0.057547648600314597,0.051370072247892425,0.05117414366808285,0.05421818717406498,0.05759570209289788,0.05884196102128875,0.056418223269463455,0.0499498042071809,0.039652374765672696,0.027991980204427412,0.01663584181705404,0.006995464315248999,0.0,0.0,0.0,0.0,0.0,0.0,0.0,0.0,0.0,0.0,0.0,0.0,0.0,0.0,0.0,0.0,0.0,0.0,0.0,0.0,0.0,0.0,0.0,0.0,0.0,0.0,0.0,0.0,0.0,0.0,0.0,0.0,0.0,0.0,0.0,0.0,0.0,0.0,0.0,0.0,0.0,0.0,0.0,0.0,0.0,0.0,0.0,0.0,0.0,0.0,0.0,0.0,0.0,0.0,0.0,0.0,0.0,0.0,0.0,0.0,0.0,0.0,0.0,0.0,0.0,0.0,0.0,0.0,0.0,0.0,0.0,0.0,0.0,0.0,0.0,0.0,0.0,0.0,0.0,0.0,0.0,0.0,0.0,0.0,0.0,0.0,0.0,0.0,0.0,0.0,0.0,0.0,0.0,0.0,0.0
0.8582136380010881,0.8782786689069607,0.8169089876377998,0.6944346635132895,0.5425652959877417,0.39543228654129925,0.280707749303686,0.21341358852778602,0.19401677854238275,0.21093846348097917,0.24620356456308576,0.2820904670155725,0.3065596617517161,0.31590787972573176,0.3142135685103314,0.310278902298524,0.31353131741508433,0.33049518372119474,0.362995198031483,0.40843782451562805,0.46167891085702273,0.5174426385188042,0.5721846709428601,0.6246694140605612,0.6751648181391784,0.7237725579245103,0.7687620036859121,0.8057418841952587,0.828123747554727,0.8287793622452323,0.8022991737623003,0.7470127888079294,0.6660182798879387,0.5668348775815824,0.4597891029396711,0.35567568704583286,0.2634477945663669,0.18862508709647827,0.1328099520714702,0.09429959606655133,0.06942834244360396,0.05409047388630064,0.04492484967701706,0.03985042316710127,0.03792866552739858,0.03877979177189372,0.0419072902054335,0.04625908065910469,0.05020439762739467,0.051906137930356165,0.04990154004439922,0.04318887992736703,0.033175998175128826,0.021339030890025926,0.009637000360619288,0.0,0.0,0.0,0.0,0.0,0.0,0.0,0.0,0.0,0.0,0.0,0.0,0.0,0.0,0.0,0.0,0.0,0.0,0.0,0.0,0.0,0.0,0.0,0.0,0.0,0.0,0.0,0.0,0.0,0.0,0.0,0.0,0.0,0.0,0.0,0.0,0.0,0.0,0.0,0.0,0.0,0.0,0.0,0.0,0.0,0.0,0.0,0.0,0.0,0.0,0.0,0.0,0.0,0.0,0.0,0.0,0.0,0.0,0.0,0.0,0.0,0.0,0.0,0.0,0.0,0.0,0.0,0.0,0.0,0.0,0.0,0.0,0.0,0.0,0.0,0.0,0.0,0.0,0.0,0.0,0.0,0.0,0.0,0.0,0.0,0.0,0.0,0.0,0.0,0.0,0.0,0.0,0.0,0.0,0.0
0.8022991737623003,0.8286890577328392,0.776930345200578,0.6623305988621089,0.5116366032484511,0.3556756870458329,0.22153521820249797,0.12650258110267878,0.07530499628943642,0.0610878656821322,0.06942834244360395,0.08385809037165967,0.0910929053085157,0.08446815413284456,0.06480189714243738,0.03877979177189372,0.01569052212498472,0.003730459214703434,0.00706994390015726,0.024498110268123777,0.049901540044399215,0.07427613988851718,0.08857783406824281,0.08656640084957944,0.06688492425492774,0.033878670468001026,-0.0030028158804595263,-0.03104758042793993,-0.036940190869280375,-0.00966480185175409,0.05695028989479574,0.16256994261363877,0.29992316522045737,0.4557217275314006,0.6127729598552668,0.752884986071897,0.8599869629861286,0.9228299085033446,0.9367182415281878,0.9039363149943029,0.8328297714699097,0.7358048601446762,0.6267416176824856,0.5184196599209705,0.4205059260331652,0.3384729158349608,0.27356000101448313,0.22363229323419415,0.1845985597698392,0.15196444133373238,0.12212842129440193,0.09273997708895967,0.06443689841003225,0.038382976180488325,0.016349665361017212,0.0,0.0,0.0,0.0,0.0,0.0,0.0,0.0,0.0,0.0,0.0,0.0,0.0,0.0,0.0,0.0,0.0,0.0,0.0,0.0,0.0,0.0,0.0,0.0,0.0,0.0,0.0,0.0,0.0,0.0,0.0,0.0,0.0,0.0,0.0,0.0,0.0,0.0,0.0,0.0,0.0,0.0,0.0,0.0,0.0,0.0,0.0,0.0,0.0,0.0,0.0,0.0,0.0,0.0,0.0,0.0,0.0,0.0,0.0,0.0,0.0,0.0,0.0,0.0,0.0,0.0,0.0,0.0,0.0,0.0,0.0,0.0,0.0,0.0,0.0,0.0,0.0,0.0,0.0,0.0,0.0,0.0,0.0,0.0,0.0,0.0,0.0,0.0,0.0,0.0,0.0,0.0,0.0,0.0,0.0
0.8328297714699097,0.846475851439994,0.7789802323654064,0.6505673558966069,0.4925546775710272,0.33847291583496086,0.2153089584107755,0.13744709543089118,0.1048730971305708,0.10575462936171946,0.12212842129440192,0.13656495870678886,0.13759288087144414,0.12231419868738407,0.09574435753329943,0.06755226374292687,0.04766299629170784,0.04238786103539308,0.052357083412501504,0.07275063636109579,0.0954676074369398,0.11224952931093364,0.11756650807606578,0.110304774185663,0.09382281983517186,0.07454661787713342,0.05973401229462637,0.055218510584146216,0.06382664751982324,0.08484024500390533,0.11449103272353092,0.1471699782647021,0.17689182271895548,0.19858650599875427,0.2089408914999367,0.20670526009572077,0.19253678761286458,0.16853768203570882,0.1376588114198567,0.10310701936137733,0.06784845347106587,0.03426241652489895,0.003974064563985715,-0.022129156686385692,-0.043722711648331095,-0.060774263754810376,-0.07327107527097079,-0.08104728254119616,-0.08378389562764395,-0.08119138736093119,-0.07330812297336692,-0.06121670154502448,-0.0455344590950392,-0.02845130693558458,-0.012515959687586377,0.0,0.0,0.0,0.0,0.0,0.0,0.0,0.0,0.0,0.0,0.0,0.0,0.0,0.0,0.0,0.0,0.0,0.0,0.0,0.0,0.0,0.0,0.0,0.0,0.0,0.0,0.0,0.0,0.0,0.0,0.0,0.0,0.0,0.0,0.0,0.0,0.0,0.0,0.0,0.0,0.0,0.0,0.0,0.0,0.0,0.0,0.0,0.0,0.0,0.0,0.0,0.0,0.0,0.0,0.0,0.0,0.0,0.0,0.0,0.0,0.0,0.0,0.0,0.0,0.0,0.0,0.0,0.0,0.0,0.0,0.0,0.0,0.0,0.0,0.0,0.0,0.0,0.0,0.0,0.0,0.0,0.0,0.0,0.0,0.0,0.0,0.0,0.0,0.0,0.0,0.0,0.0,0.0,0.0,0.0
0.9021637187143569,0.9606782202355518,0.9392541469263855,0.8494090777916758,0.7142254161378193,0.5616024940141859,0.417103062349981,0.29829363398122793,0.21235961023134117,0.15695246481028638,0.12361129467423608,0.10221265363074607,0.0848740966800923,0.06802081012283114,0.052328430241980854,0.04095692313413094,0.03743799631954559,0.04262787378563351,0.05470062244423957,0.06963189419755197,0.08288908524230283,0.09128477668695338,0.094141307125244,0.09326803883029817,0.09180183735160874,0.09246713773053328,0.09606350876034005,0.10088597221879254,0.1033751623401917,0.09975490491552212,0.08797089873569454,0.06908288885431912,0.047455388163730766,0.029565449359511848,0.021811485879986305,0.028135638814681042,0.04838603396413119,0.07809022112812677,0.10977999727297306,0.13540620179192853,0.1489483355907699,0.14823496235442635,0.13529041033978295,0.11510087163753231,0.09332400178489371,0.07389807414486994,0.05755915239230149,0.041913605640434046,0.023069970702750006,-0.001840648080120147,-0.03235790543524533,-0.06416273574161044,-0.08824973386684608,-0.09603093457151163,-0.08210447693137043,-0.04733979293282458,-0.00045650348433855237,0.044385425416421695,0.06993820697471982,0.06171227049505644,0.013119347853446206,-0.07145834597112168,-0.17653954079162648,-0.2794277275804727,-0.3561430289145563,-0.3881299209287988,-0.3675622149650894,-0.2994574826894065,-0.20021061976307206,-0.0927428691227153,0.0,0.0,0.0,0.0,0.0,0.0,0.0,0.0,0.0,0.0,0.0,0.0,0.0,0.0,0.0,0.0,0.0,0.0,0.0,0.0,0.0,0.0,0.0,0.0,0.0,0.0,0.0,0.0,0.0,0.0,0.0,0.0,0.0,0.0,0.0,0.0,0.0,0.0,0.0,0.0,0.0,0.0,0.0,0.0,0.0,0.0,0.0,0.0,0.0,0.0,0.0,0.0,0.0,0.0,0.0,0.0,0.0,0.0,0.0,0.0,0.0,0.0,0.0,0.0,0.0,0.0,0.0,0.0,0.0,0.0,0.0,0.0,0.0,0.0,0.0,0.0,0.0,0.0,0.0,0.0
0.7389037478197139,0.810437381543798,0.8205882213000676,0.7731798532013094,0.6814561397712758,0.5641137704158644,0.440560213563003,0.32665592016338707,0.2321694181366401,0.16021724803216583,0.10853481224010274,0.07139533963531243,0.043477986773392326,0.02073663694649399,0.0013969750332723427,-0.014392115927298391,-0.02588199867330846,-0.03188008032902249,-0.03217273475974083,-0.027504534138770242,-0.019261481410063588,-0.00895460304660858,0.0021816865810029115,0.013284999497875665,0.023669313439994843,0.03253558504576573,0.03885217775246404,0.0415843909886987,0.04025552283469496,0.035605955664014345,0.02998971149864928,0.02718380738151196,0.031489377408650224,0.046303768427668965,0.0726180413121931,0.10802084040799036,0.14669395446693628,0.1805786112062405,0.20147341113343328,0.20344793396286442,0.18477107894209996,0.14864882589487288,0.10243021839774644,0.05545798354582143,0.016230773198389094,-0.0101742757748369,-0.02351225828325047,-0.028076810978969125,-0.03074313999542193,-0.03798035030225094,-0.052859981396744755,-0.07351766276556618,-0.09160005787217382,-0.09606293280339065,-0.07578454084865742,-0.023283675492809547,0.06198423003739189,0.17343827946582163,0.2968046805311525,0.4135947220544813,0.5053070015309697,0.5576068312843679,0.5636461006589812,0.5249750182508395,0.4507380133934167,0.3550775740571343,0.2536817970633784,0.16040934348350017,0.08491470790521972,0.03160566404335537,0.0,0.0,0.0,0.0,0.0,0.0,0.0,0.0,0.0,0.0,0.0,0.0,0.0,0.0,0.0,0.0,0.0,0.0,0.0,0.0,0.0,0.0,0.0,0.0,0.0,0.0,0.0,0.0,0.0,0.0,0.0,0.0,0.0,0.0,0.0,0.0,0.0,0.0,0.0,0.0,0.0,0.0,0.0,0.0,0.0,0.0,0.0,0.0,0.0,0.0,0.0,0.0,0.0,0.0,0.0,0.0,0.0,0.0,0.0,0.0,0.0,0.0,0.0,0.0,0.0,0.0,0.0,0.0,0.0,0.0,0.0,0.0,0.0,0.0,0.0,0.0,0.0,0.0,0.0,0.0
0.5053070015309697,0.5421274864774637,0.5365033141524893,0.49481885807601833,0.4294639913791926,0.3550775740571343,0.28474350852634384,0.22721173465042951,0.1860114580096033,0.1603040135580426,0.14691861502751094,0.1426076948011511,0.14556356934797204,0.15579018485361362,0.17431354606465516,0.2018276176680843,0.23754362210929972,0.2789181355671288,0.3224088609431645,0.3649917447207382,0.4056953427050858,0.44634555170385853,0.49098462751765126,0.5439695752649735,0.607349580916286,0.6785253405660575,0.7492257274299293,0.8064589388759328,0.8354249925880153,0.8236510633272551,0.7650982573524646,0.6628862069100167,0.5296441764024429,0.3852121010051367,0.25224363789291104,0.15092647537163306,0.09431168087172373,0.08554742147509495,0.11771802248452863,0.17620233147738568,0.24274567690673265,0.30001097307365304,0.33535071675414585,0.34289634989138784,0.32364775952937924,0.28385569239288405,0.2324301866763985,0.1782630193989521,0.1282134594285868,0.08616323197024975,0.05314178029466505,0.027938355619782612,0.009243005175469157,-0.004686542869644549,-0.014979552781131385,-0.022039916836552702,-0.025995037767875772,-0.0264184135780157,-0.02360204116396851,-0.018337784540466126,-0.011774734303949591,-0.00521467348865866,0.00046210187093604586,0.004600066973878283,0.006958254210465973,0.0076515775002445234,0.006922175576883521,0.005407856122832127,0.0035258285613930366,0.0016269631874037975,0.0,0.0,0.0,0.0,0.0,0.0,0.0,0.0,0.0,0.0,0.0,0.0,0.0,0.0,0.0,0.0,0.0,0.0,0.0,0.0,0.0,0.0,0.0,0.0,0.0,0.0,0.0,0.0,0.0,0.0,0.0,0.0,0.0,0.0,0.0,0.0,0.0,0.0,0.0,0.0,0.0,0.0,0.0,0.0,0.0,0.0,0.0,0.0,0.0,0.0,0.0,0.0,0.0,0.0,0.0,0.0,0.0,0.0,0.0,0.0,0.0,0.0,0.0,0.0,0.0,0.0,0.0,0.0,0.0,0.0,0.0,0.0,0.0,0.0,0.0,0.0,0.0,0.0,0.0,0.0
0.7650982573524646,0.7386205838293104,0.6308581915391713,0.47054847475102124,0.2973641348332359,0.15092647537163306,0.05993991715439665,0.03668601175835217,0.07464878654036479,0.15270744796117933,0.24274567690673263,0.3175677016670661,0.3598197635197464,0.3636840447278789,0.3343421714790055,0.2838556923928841,0.2251703425402239,0.16941703523354257,0.12219663037252268,0.08416638429040713,0.053141780294665035,0.026763695929342857,0.004397115869348396,-0.012533769523804505,-0.021743080321629055,-0.02203991683655268,-0.014924702586395893,-0.004886522566888519,0.0019259322536743662,0.00021940226908454766,-0.011774734303949605,-0.0306699788523581,-0.04818303283568619,-0.05341693928353017,-0.036501625042485816,0.0076515775002445365,0.07684624990899255,0.16132815064977546,0.24597255710810423,0.3143173372908941,0.35319344975284844,0.35649912102312575,0.3269474896556161,0.27527829630368594,0.21722709322832512,0.169220971677164,0.14410830819636322,0.14814705045099935,0.18002885870426316,0.23207125614068794,0.2930772652265834,0.351532565968764,0.4003691067753342,0.4370043624577669,0.4643972933598282,0.4896908209613108,0.5214562067984355,0.5667635640431954,0.6279307243230116,0.7010037573753057,0.7758105245689325,0.8376657204374859,0.8710665283766841,0.8629023656423908,0.8061969985268099,0.7023743964236987,0.5614637410511388,0.40091934552173386,0.24142290622799056,0.10281876317409408,0.0,0.0,0.0,0.0,0.0,0.0,0.0,0.0,0.0,0.0,0.0,0.0,0.0,0.0,0.0,0.0,0.0,0.0,0.0,0.0,0.0,0.0,0.0,0.0,0.0,0.0,0.0,0.0,0.0,0.0,0.0,0.0,0.0,0.0,0.0,0.0,0.0,0.0,0.0,0.0,0.0,0.0,0.0,0.0,0.0,0.0,0.0,0.0,0.0,0.0,0.0,0.0,0.0,0.0,0.0,0.0,0.0,0.0,0.0,0.0,0.0,0.0,0.0,0.0,0.0,0.0,0.0,0.0,0.0,0.0,0.0,0.0,0.0,0.0,0.0,0.0,0.0,0.0,0.0,0.0
0.7758105245689325,0.869736453119926,0.9045387631888487,0.8807455958581587,0.8081024456505833,0.7023743964236987,0.5813461385348433,0.4607313920814822,0.35180774262601044,0.26045838878600563,0.18781522896639463,0.13143011655646317,0.08849531460100656,0.0562434065785227,0.03280768959360765,0.017052793250019373,0.00769863961235582,0.0037034657033522098,0.0034381353304749123,0.005136037501131604,0.007414536030006053,0.00972522278522638,0.01244394155231222,0.016494093775854996,0.02264380418366286,0.030809896939436136,0.039742463698985146,0.047322399411837454,0.051432205614443074,0.05107247796960931,0.04722390462952567,0.042988277133881016,0.04279042205572184,0.05080209101853321,0.0691105491563388,0.0963436728061005,0.1273815970728379,0.1544363553184827,0.16927857474034022,0.16591942086955883,0.14280572161289462,0.10367472605680461,0.056637692538694585,0.01168403684167545,-0.022601106617631237,-0.0419620621253099,-0.04794520164515154,-0.04728039383930335,-0.049254738437000546,-0.061899937292577714,-0.08830052417097434,-0.1247738445996944,-0.1595080088968866,-0.17726600664193384,-0.16310793160071044,-0.10724096206275478,-0.009143989845354611,0.12239672534373779,0.2689458392636875,0.40716091917029396,0.5143366269073218,0.5736692379230924,0.5783013790978192,0.5318843313138544,0.44707390689333737,0.3418041267269635,0.23469891699296605,0.14099546207991318,0.06988883467036947,0.023897476176226035,0.0,0.0,0.0,0.0,0.0,0.0,0.0,0.0,0.0,0.0,0.0,0.0,0.0,0.0,0.0,0.0,0.0,0.0,0.0,0.0,0.0,0.0,0.0,0.0,0.0,0.0,0.0,0.0,0.0,0.0,0.0,0.0,0.0,0.0,0.0,0.0,0.0,0.0,0.0,0.0,0.0,0.0,0.0,0.0,0.0,0.0,0.0,0.0,0.0,0.0,0.0,0.0,0.0,0.0,0.0,0.0,0.0,0.0,0.0,0.0,0.0,0.0,0.0,0.0,0.0,0.0,0.0,0.0,0.0,0.0,0.0,0.0,0.0,0.0,0.0,0.0,0.0,0.0,0.0,0.0
0.5143366269073218,0.5523323921935078,0.5454076279653742,0.4991718700648321,0.4260584465308699,0.3418041267269635,0.26151343330686483,0.19651092581818785,0.15263172144562548,0.13029656464729297,0.1259848534394593,0.13431131887498904,0.1503132690660096,0.17056362985687898,0.193546802186045,0.21918921855156226,0.2478613263575337,0.2801949412390259,0.31641422847954986,0.356579876627781,0.4009253086123913,0.4500418539662735,0.504642724314541,0.5648573005105051,0.6292749035303292,0.6941485877507819,0.7531937088232327,0.7982512401260555,0.8207880687098013,0.8138871367592244,0.7741618927664323,0.7029982794157276,0.6067006893265071,0.49543882781712195,0.3812512256715577,0.2756381565550004,0.18738365789006525,0.1211558490235237,0.0771859271393295,0.05200673232977773,0.03994454373558598,0.034885892241826734,0.031823299495360564,0.02780733271858201,0.02214409204970509,0.01590581295801711,0.011002139660531244,0.009149019201615344,0.011060159845084294,0.016089244956142165,0.022403962122078045,0.027351746142472468,0.029358973781531086,0.027461249962067502,0.022380585140182166,0.0166368576157722,0.013868175042991402,0.01847322162859267,0.03343235072835564,0.059472981299568614,0.09442832726715226,0.13327250768151705,0.1692647689088642,0.19514158294027326,0.20501257079213098,0.19591914284104175,0.16860126181016544,0.12785196836658008,0.08090405350291544,0.035908261696563894,0.0,0.0,0.0,0.0,0.0,0.0,0.0,0.0,0.0,0.0,0.0,0.0,0.0,0.0,0.0,0.0,0.0,0.0,0.0,0.0,0.0,0.0,0.0,0.0,0.0,0.0,0.0,0.0,0.0,0.0,0.0,0.0,0.0,0.0,0.0,0.0,0.0,0.0,0.0,0.0,0.0,0.0,0.0,0.0,0.0,0.0,0.0,0.0,0.0,0.0,0.0,0.0,0.0,0.0,0.0,0.0,0.0,0.0,0.0,0.0,0.0,0.0,0.0,0.0,0.0,0.0,0.0,0.0,0.0,0.0,0.0,0.0,0.0,0.0,0.0,0.0,0.0,0.0,0.0,0.0
0.7741618927664323,0.7840423704255086,0.7160767183031418,0.5887079172583981,0.4312264488465103,0.27563815655500046,0.14815297838229974,0.06423455283624858,0.025776518628107484,0.02313572788193628,0.039944543735585966,0.05884460750455616,0.06742148836332565,0.06059805841466526,0.04086399228838611,0.01590581295801712,-0.0052219418787069795,-0.015349868077577926,-0.01187434068844508,0.0027763285155770773,0.02240396212207803,0.039489844553643516,0.047919409684694055,0.04508964795318685,0.03278626564134311,0.016636857615772202,0.004368952822586789,0.003417811167585068,0.018576001976733477,0.05034157167758805,0.09442832726715226,0.1425996402778117,0.18464141428542763,0.2109759837207613,0.21521477029835479,0.19591914284104175,0.15701762705524508,0.10668991487712313,0.054987317309950795,0.010879815519258302,-0.020344299173096256,-0.03845311282320628,-0.047904050746641814,-0.05578692251936548,-0.06872564958660012,-0.08980055297553313,-0.11661732231474609,-0.1413130742096892,-0.15264748611586926,-0.13959136286778204,-0.09525764868634792,-0.020232562917675407,0.07808043649049885,0.18504434438937206,0.28318856629896033,0.3568375965813335,0.39603307958878115,0.3993113559386837,0.37276436929397294,0.32783089026823914,0.27750818592066107,0.23249581254947582,0.19861095361613962,0.17593584110427785,0.1600670515937508,0.14466868826958404,0.12433624318986675,0.09678629645058848,0.06357579106488705,0.02935390136265742,0.0,0.0,0.0,0.0,0.0,0.0,0.0,0.0,0.0,0.0,0.0,0.0,0.0,0.0,0.0,0.0,0.0,0.0,0.0,0.0,0.0,0.0,0.0,0.0,0.0,0.0,0.0,0.0,0.0,0.0,0.0,0.0,0.0,0.0,0.0,0.0,0.0,0.0,0.0,0.0,0.0,0.0,0.0,0.0,0.0,0.0,0.0,0.0,0.0,0.0,0.0,0.0,0.0,0.0,0.0,0.0,0.0,0.0,0.0,0.0,0.0,0.0,0.0,0.0,0.0,0.0,0.0,0.0,0.0,0.0,0.0,0.0,0.0,0.0,0.0,0.0,0.0,0.0,0.0,0.0
0.7347727923915902,0.7366702667106791,0.663433913273842,0.5344067395993742,0.3792451921470057,0.22968354691940834,0.11072083238504583,0.03687026304234814,0.008827010510400761,0.015926564372100677,0.04109693079011594,0.06667873379315986,0.08013557950313473,0.07647702005302831,0.05838083781366052,0.033795486887862,0.012082674334564173,0.0008988447249417014,0.0034016616469507905,0.01772700915183735,0.038137628330429205,0.05737910552003866,0.0693842840584863,0.07145018390189611,0.06523441066343054,0.05629109522474803,0.052285710468676784,0.0603988570156402,0.08467439150367807,0.12412998940222733,0.172296554201103,0.21849402786442604,0.25064796465338685,0.25892772231206085,0.23910923593552255,0.1944928707355625,0.13552857937711707,0.07697842888169563,0.03329828883786394,0.013659767355005775,0.018363298580419535,0.03812305454706042,0.05684493514971978,0.057310867625639916,0.028035357592022282,-0.031086141060611208,-0.10656022595524098,-0.17374081576335038,-0.2036214642123173,-0.17207629798805393,-0.06860739836525456,0.09804758630229758,0.3017016295927617,0.5030080615237037,0.6605808091342108,0.7425153918071675,0.7352103989463415,0.6473354402375144,0.5062357144161328,0.3496736942541464,0.2146612825901957,0.12713165551253808,0.09573982552252909,0.11122857261724359,0.15146798482914547,0.18997563363875586,0.20491396829142572,0.18570954749896712,0.13515309139320786,0.06696926338495734,0.0,0.0,0.0,0.0,0.0,0.0,0.0,0.0,0.0,0.0,0.0,0.0,0.0,0.0,0.0,0.0,0.0,0.0,0.0,0.0,0.0,0.0,0.0,0.0,0.0,0.0,0.0,0.0,0.0,0.0,0.0,0.0,0.0,0.0,0.0,0.0,0.0,0.0,0.0,0.0,0.0,0.0,0.0,0.0,0.0,0.0,0.0,0.0,0.0,0.0,0.0,0.0,0.0,0.0,0.0,0.0,0.0,0.0,0.0,0.0,0.0,0.0,0.0,0.0,0.0,0.0,0.0,0.0,0.0,0.0,0.0,0.0,0.0,0.0,0.0,0.0,0.0,0.0,0.0,0.0
0.7425153918071675,0.7328845703138726,0.6474243208813013,0.5098507592454005,0.3540565535005695,0.21466128259019573,0.11792742131004912,0.07598852003050408,0.0854152413663161,0.13055320356154226,0.18997563363875583,0.243714391227287,0.2790949494579183,0.29322602824113947,0.2920542062156693,0.28669317250939896,0.28856315455167203,0.3057329059484546,0.3405975602520091,0.3902610551293474,0.44867939306192217,0.5095101843779966,0.5684353286181234,0.624095285227474,0.6774308805011386,0.7298928883044513,0.7813984772938345,0.8289533554484554,0.866541372780136,0.8863624708585097,0.8809873236351021,0.8456786440001819,0.7800992981263063,0.6888661354089948,0.5808041329092393,0.4671576994876743,0.35929462554953956,0.26652487847997736,0.1945564478678606,0.14488555524494018,0.11515400610969787,0.10027794695397169,0.09400575846390176,0.09051148087709028,0.08566412366869373,0.07771261251921656,0.06726965046340427,0.05664327872092571,0.04872531096111238,0.045766586692091896,0.048413136465419566,0.05493679368371121,0.06304562970548717,0.06896407129867456,0.06953026251451894,0.06352342273503192,0.05226022337006222,0.03979502700438885,0.031220837401492174,0.031164518240056897,0.042083656224237105,0.06304908152579611,0.09000943394768186,0.11630048200391889,0.13467683913983697,0.13944929252673458,0.12806363791999947,0.10242582614350826,0.06771164977367827,0.031152194690366057,0.0,0.0,0.0,0.0,0.0,0.0,0.0,0.0,0.0,0.0,0.0,0.0,0.0,0.0,0.0,0.0,0.0,0.0,0.0,0.0,0.0,0.0,0.0,0.0,0.0,0.0,0.0,0.0,0.0,0.0,0.0,0.0,0.0,0.0,0.0,0.0,0.0,0.0,0.0,0.0,0.0,0.0,0.0,0.0,0.0,0.0,0.0,0.0,0.0,0.0,0.0,0.0,0.0,0.0,0.0,0.0,0.0,0.0,0.0,0.0,0.0,0.0,0.0,0.0,0.0,0.0,0.0,0.0,0.0,0.0,0.0,0.0,0.0,0.0,0.0,0.0,0.0,0.0,0.0,0.0
0.8809873236351021,0.9240939109703142,0.8849501433075184,0.7775310631558984,0.6279483940900878,0.4671576994876744,0.3231963721201091,0.21474495700217655,0.1483960583565915,0.11935295936668808,0.11515400610969785,0.1203346469765009,0.12284881169413263,0.11602180132511646,0.09950468735204686,0.07771261251921657,0.05689628396509011,0.04254104992590785,0.037232656970814314,0.040246979797957945,0.04841313646541955,0.05770529170663808,0.06479684926100504,0.06797577619767543,0.06720454954106604,0.06352342273503193,0.05825795397303394,0.05249952596874816,0.04709960677317224,0.04307984986391962,0.042083656224237084,0.046422842328015454,0.05845252943867289,0.07936600684133682,0.10787554103686395,0.13944929252673458,0.16668363846474962,0.18100123722024072,0.1753099179131608,0.14675842441180142,0.09850873632305464,0.03964567235703777,-0.01706112049570472,-0.05902924650299335,-0.07814857729821124,-0.07393355212374905,-0.054228256163409455,-0.032909844690358396,-0.025090722246417507,-0.041300116515847626,-0.08265694219100075,-0.13934334369721532,-0.19074402842679972,-0.2131973646283923,-0.18662991117063266,-0.10165357631411669,0.0357863845877959,0.20525679543853145,0.3751909483440196,0.5113695669011451,0.5860826560405403,0.5855360846853062,0.5135739845232558,0.38989078769404484,0.24423565700070204,0.10802006524935331,0.006009485551309826,-0.04921926402211679,-0.059107213048604154,-0.03647899613539507,0.0,0.0,0.0,0.0,0.0,0.0,0.0,0.0,0.0,0.0,0.0,0.0,0.0,0.0,0.0,0.0,0.0,0.0,0.0,0.0,0.0,0.0,0.0,0.0,0.0,0.0,0.0,0.0,0.0,0.0,0.0,0.0,0.0,0.0,0.0,0.0,0.0,0.0,0.0,0.0,0.0,0.0,0.0,0.0,0.0,0.0,0.0,0.0,0.0,0.0,0.0,0.0,0.0,0.0,0.0,0.0,0.0,0.0,0.0,0.0,0.0,0.0,0.0,0.0,0.0,0.0,0.0,0.0,0.0,0.0,0.0,0.0,0.0,0.0,0.0,0.0,0.0,0.0,0.0,0.0
0.5860826560405403,0.5628936679011651,0.47790803675739685,0.35374030467028045,0.22066484628322844,0.10802006524935333,0.03636735684285685,0.012867545514613206,0.030947731892770634,0.07417614433399061,0.12271233645084996,0.15997601859095292,0.1776712023284288,0.17714527928167628,0.1674974238344554,0.1612520689701495,0.16931401866876614,0.19749261964553308,0.2448908180434671,0.30513965926350856,0.36939987854398965,0.4298437431026214,0.4822330795508963,0.5266880659837299,0.5665173798193806,0.6057394135211394,0.6463846809617978,0.6866840257484066,0.7208465283334637,0.7404968342370056,0.737225862239992,0.7053339413755217,0.6438253620208993,0.557022827297348,0.4536687562837134,0.34487572499024655,0.24161219899415545,0.15247472077562493,0.08231747960146392,0.03197980336652879,-0.000998017766181384,-0.02103578184025591,-0.033016185502132415,-0.041040124248048725,-0.04768836820855896,-0.05385507346269992,-0.05906028039242324,-0.06205452135262451,-0.06150302142715972,-0.05656361124870209,-0.047229242004874154,-0.03467645683784787,-0.019869262779211305,-0.004627690782418856,0.00948501943625283,0.021666381247087897,0.032047112511478834,0.04176048665507704,0.052178548610596655,0.06435184335205464,0.07840195215986677,0.09312717869666431,0.10634129909094327,0.11509468471920778,0.11663936831549122,0.10933210528853694,0.0932021926012698,0.07043873101192762,0.044580958079756663,0.019828345053404018,0.0,0.0,0.0,0.0,0.0,0.0,0.0,0.0,0.0,0.0,0.0,0.0,0.0,0.0,0.0,0.0,0.0,0.0,0.0,0.0,0.0,0.0,0.0,0.0,0.0,0.0,0.0,0.0,0.0,0.0,0.0,0.0,0.0,0.0,0.0,0.0,0.0,0.0,0.0,0.0,0.0,0.0,0.0,0.0,0.0,0.0,0.0,0.0,0.0,0.0,0.0,0.0,0.0,0.0,0.0,0.0,0.0,0.0,0.0,0.0,0.0,0.0,0.0,0.0,0.0,0.0,0.0,0.0,0.0,0.0,0.0,0.0,0.0,0.0,0.0,0.0,0.0,0.0,0.0,0.0
0.737225862239992,0.7676497098807831,0.7269459976736484,0.6272506523624761,0.4910378234744774,0.3448757249902466,0.21223938297471634,0.1097468901997968,0.04352754258579526,0.010026261332835538,-0.0009980177661813897,-0.0024576746218497357,-0.005006627592203636,-0.014790840085437112,-0.032400551426470525,-0.053855073462699916,-0.07299698928155998,-0.08372014112703771,-0.0824453190444516,-0.06915235914444705,-0.04722924200487416,-0.022235611488106245,-4.397945172032898e-05,0.01504447183437334,0.021640885835984926,0.021666381247087897,0.019672636677078435,0.021259167731681038,0.031040304537204924,0.050790426065840194,0.07840195215986678,0.10809522188147065,0.13194936158871204,0.14237318776656963,0.13475096558523467,0.10933210528853693,0.07158627639569631,0.030710873641114966,-0.003372116201193427,-0.023580082378440337,-0.02851122696267808,-0.02339279520094053,-0.018539457347568976,-0.02559730926803348,-0.05272026956010375,-0.10036386807954255,-0.15934732634263213,-0.21218439414768464,-0.23760237439697715,-0.21702038641915025,-0.14095794380102067,-0.01358681674235182,0.14834092717070668,0.3173559897646567,0.4629362125867466,0.5595951457008236,0.5933601477078907,0.5656331904652823,0.4911048829918401,0.393058239168259,0.29625055897199504,0.21998662774151684,0.1735028377593113,0.15491396838615304,0.15371857304680858,0.1557099033070236,0.14847076454408814,0.1254271545866116,0.08759478350773359,0.04232212696792365,0.0,0.0,0.0,0.0,0.0,0.0,0.0,0.0,0.0,0.0,0.0,0.0,0.0,0.0,0.0,0.0,0.0,0.0,0.0,0.0,0.0,0.0,0.0,0.0,0.0,0.0,0.0,0.0,0.0,0.0,0.0,0.0,0.0,0.0,0.0,0.0,0.0,0.0,0.0,0.0,0.0,0.0,0.0,0.0,0.0,0.0,0.0,0.0,0.0,0.0,0.0,0.0,0.0,0.0,0.0,0.0,0.0,0.0,0.0,0.0,0.0,0.0,0.0,0.0,0.0,0.0,0.0,0.0,0.0,0.0,0.0,0.0,0.0,0.0,0.0,0.0,0.0,0.0,0.0,0.0
0.5595951457008236,0.580707865926464,0.5503326698448887,0.4799925413796388,0.3884471905994986,0.29625055897199504,0.22004273995015164,0.16967468870531324,0.14644279249531106,0.14479987446319503,0.1557099033070236,0.17026214972207007,0.18315716609344287,0.19338398635036877,0.20353040197795394,0.21769598813957003,0.2389133013923313,0.2684445098693195,0.30502510778435615,0.34610408323569436,0.3895010975008955,0.43472342135818287,0.4831994679452502,0.5371987568657033,0.5978415628382509,0.6630806731495426,0.7266489657162085,0.7786465058900989,0.8078049942698206,0.8047662035118518,0.7652309547344519,0.6917833033073189,0.5936132840158126,0.4841071840235295,0.3770693529773987,0.2828782912667043,0.20594663254552442,0.1444094009841744,0.0921612302842949,0.04249323790049422,-0.008033842171483823,-0.056969925946203634,-0.09568242086755703,-0.11164648517473039,-0.09264778519485972,-0.03151651195524546,0.07023046914920719,0.20115096958981077,0.34159699228598,0.46800313876167404,0.5585392404625137,0.5982110055777348,0.5835540793484385,0.5219981021671403,0.430311865993508,0.33029619734844534,0.24329040094407003,0.18581624468404076,0.1654990749249144,0.18038255415897908,0.22034236396280626,0.2701916991401301,0.3139872569933697,0.33840205998267525,0.3355889825396018,0.304355861591301,0.24960811749499134,0.1810186137599425,0.10994514707658085,0.047016789302059575,0.0,0.0,0.0,0.0,0.0,0.0,0.0,0.0,0.0,0.0,0.0,0.0,0.0,0.0,0.0,0.0,0.0,0.0,0.0,0.0,0.0,0.0,0.0,0.0,0.0,0.0,0.0,0.0,0.0,0.0,0.0,0.0,0.0,0.0,0.0,0.0,0.0,0.0,0.0,0.0,0.0,0.0,0.0,0.0,0.0,0.0,0.0,0.0,0.0,0.0,0.0,0.0,0.0,0.0,0.0,0.0,0.0,0.0,0.0,0.0,0.0,0.0,0.0,0.0,0.0,0.0,0.0,0.0,0.0,0.0,0.0,0.0,0.0,0.0,0.0,0.0,0.0,0.0,0.0,0.0
0.7652309547344519,0.7655053624930264,0.6922077419328808,0.5673435384874502,0.42116592628676514,0.28287829126670433,0.17230698797466046,0.09647643748018295,0.04979431531234023,0.019308600399375337,-0.008033842171483839,-0.03888841475811356,-0.0699668989251942,-0.08919877688199619,-0.08065970424132207,-0.03151651195524544,0.06165935275922243,0.1899034365471459,0.33289616877264405,0.46417062292209027,0.5585392404625137,0.5992633835336583,0.5826026342745637,0.5183463379298259,0.42633389340803396,0.3302961973484454,0.25113978349005844,0.20180905701748797,0.18515386230056613,0.19510454525708923,0.2203423639628062,0.24893545656343624,0.2722978256615257,0.28729239990290156,0.2961071958474713,0.304355861591301,0.31839383055126347,0.34294167725932806,0.37979289351330997,0.427830866475294,0.4840333357362105,0.544812434524575,0.6070244440113779,0.6682490671857974,0.726340228481807,0.778607453389991,0.8211543476773413,0.8488245926683713,0.8559349478910032,0.8376314097629923,0.791430240999931,0.7180106997832513,0.6231218230299479,0.5150280194544065,0.4038615104325462,0.29983020605117117,0.21126213818208506,0.1437804317056439,0.09892389431792506,0.0746160361475496,0.06609030896380565,0.06722356465940962,0.07190047611952381,0.07516137953677712,0.07387870886428277,0.06694426140078738,0.055039571325463096,0.04003161005297512,0.024379831159222605,0.01045068513097574,0.0,0.0,0.0,0.0,0.0,0.0,0.0,0.0,0.0,0.0,0.0,0.0,0.0,0.0,0.0,0.0,0.0,0.0,0.0,0.0,0.0,0.0,0.0,0.0,0.0,0.0,0.0,0.0,0.0,0.0,0.0,0.0,0.0,0.0,0.0,0.0,0.0,0.0,0.0,0.0,0.0,0.0,0.0,0.0,0.0,0.0,0.0,0.0,0.0,0.0,0.0,0.0,0.0,0.0,0.0,0.0,0.0,0.0,0.0,0.0,0.0,0.0,0.0,0.0,0.0,0.0,0.0,0.0,0.0,0.0,0.0,0.0,0.0,0.0,0.0,0.0,0.0,0.0,0.0,0.0
0.5585392404625137,0.5854290240092032,0.5624698544425417,0.5001193320747814,0.41608893640818073,0.33029619734844534,0.25943632596364324,0.21398376101966915,0.19618953989920923,0.2012807239082681,0.22034236396280624,0.2437049505397184,0.2645661942587207,0.2802183170080506,0.29209866865956235,0.304355861591301,0.3217212226798385,0.3478939584005084,0.3843664257120191,0.43045450309220734,0.4840333357362105,0.5425065010326959,0.6034824542412004,0.6648526794447743,0.7243048542979122,0.778607453389991,0.8231398384660848,0.8520595461810463,0.8592349203582987,0.8397383399017235,0.791430240999931,0.7160740671446394,0.6195435770339425,0.5109709742167469,0.40103028632395166,0.29983020605117117,0.2150080014718978,0.15053723707658118,0.10652356873152002,0.07995385810254249,0.06609030896380566,0.06004791336798508,0.058096566356577624,0.05836975708329809,0.06087846772442333,0.06694426140078738,0.07831378924147991,0.09626404030240207,0.12095709697522586,0.15118812094659506,0.1845371841604248,0.21753940939237876,0.24739455315107312,0.2711155108061086,0.28654175043218383,0.2926404763326897,0.2893716794102486,0.27813731549836584,0.26057202054498785,0.23848048129970717,0.21354379062041698,0.1870221519712497,0.16013322321714413,0.13353975599900375,0.10770484651426993,0.0830721403899939,0.06003853576670241,0.03958683758820014,0.022422552943228057,0.009124463708733854,0.0,0.0,0.0,0.0,0.0,0.0,0.0,0.0,0.0,0.0,0.0,0.0,0.0,0.0,0.0,0.0,0.0,0.0,0.0,0.0,0.0,0.0,0.0,0.0,0.0,0.0,0.0,0.0,0.0,0.0,0.0,0.0,0.0,0.0,0.0,0.0,0.0,0.0,0.0,0.0,0.0,0.0,0.0,0.0,0.0,0.0,0.0,0.0,0.0,0.0,0.0,0.0,0.0,0.0,0.0,0.0,0.0,0.0,0.0,0.0,0.0,0.0,0.0,0.0,0.0,0.0,0.0,0.0,0.0,0.0,0.0,0.0,0.0,0.0,0.0,0.0,0.0,0.0,0.0,0.0
0.791430240999931,0.804880375705115,0.7395593121556304,0.6136151366336638,0.4562840101124923,0.2998302060511712,0.17114072561721524,0.08630855579790836,0.047873203129152185,0.046583700532871246,0.06609030896380565,0.08867960781162336,0.10152030193941802,0.0993154247754614,0.08488034161094647,0.0669442614007874,0.05597856318760304,0.061205520136862326,0.08671401707405167,0.13037262842546923,0.1845371841604248,0.23839677733230488,0.2811693238352287,0.3051802244096227,0.30794023100440815,0.2926404763326897,0.26692603246795354,0.24029359735450534,0.22087120073549313,0.21256779563849165,0.21354379062041698,0.216622213949479,0.21168998775316034,0.18947509283783368,0.14553587793750805,0.0830721403899939,0.01339526818178497,-0.04643519772169164,-0.07836605103404842,-0.06915580029428715,-0.015361728744798589,0.07428469054115362,0.18018738160226777,0.2767854594516501,0.33971315138275837,0.35302664150033436,0.31415026510939553,0.23484843380482343,0.13780150794054566,0.04982763918852157,-0.006065788461699611,-0.017619513494162416,0.015229337659650337,0.07968787946935774,0.15604839719863736,0.2247621474552067,0.27265017741274566,0.2969739921040798,0.30420377339100774,0.3063450053447372,0.31515388497738384,0.33673190881396875,0.36872081880179486,0.40068493966485397,0.4179481549276962,0.40713460994082373,0.3613652450374848,0.28340235704918604,0.1852098998943384,0.08461363021617126,0.0,0.0,0.0,0.0,0.0,0.0,0.0,0.0,0.0,0.0,0.0,0.0,0.0,0.0,0.0,0.0,0.0,0.0,0.0,0.0,0.0,0.0,0.0,0.0,0.0,0.0,0.0,0.0,0.0,0.0,0.0,0.0,0.0,0.0,0.0,0.0,0.0,0.0,0.0,0.0,0.0,0.0,0.0,0.0,0.0,0.0,0.0,0.0,0.0,0.0,0.0,0.0,0.0,0.0,0.0,0.0,0.0,0.0,0.0,0.0,0.0,0.0,0.0,0.0,0.0,0.0,0.0,0.0,0.0,0.0,0.0,0.0,0.0,0.0,0.0,0.0,0.0,0.0,0.0,0.0
0.9381841035703424,1.0018550196817404,0.97924424435108,0.8804044814219666,0.7288482425542573,0.555074973453377,0.38897680853668054,0.2533977719744113,0.16020706030261123,0.10978812517525685,0.09346911740766183,0.0976544162570463,0.10853432221333788,0.11536474297864781,0.11221375305229589,0.09791988093110907,0.07476451328814124,0.047192667141530364,0.020225993216419203,-0.0012885263189317902,-0.01308534492010415,-0.011828340204486027,0.0042935469782218955,0.03469158070156811,0.0755437571601337,0.11955081290639381,0.1567820993554949,0.17676031416161425,0.17139799655381946,0.13790205536514066,0.08054373694739393,0.010398353782480104,-0.05722496920674249,-0.10711073128826992,-0.12892616474558605,-0.12083005520369089,-0.0904918367276307,-0.05289780875680364,-0.02541983505111162,-0.021650546501937974,-0.046080834201298757,-0.09156465017334481,-0.14068004994853178,-0.1708095467159574,-0.16146057078762752,-0.10148910125092299,0.006201578700197974,0.14417775721308435,0.28456137826889427,0.39654623516008414,0.4550635391852088,0.44743428112083644,0.37862839299688894,0.26751233223760607,0.14223149862660966,0.03232128359093317,-0.03948074001147609,-0.061716818956002124,-0.037394597390626574,0.01888279165620759,0.08631866569648021,0.14438534214814877,0.17856544806820618,0.18317653257869987,0.16146663205386413,0.12302126586929546,0.07972263682246042,0.04202498879849283,0.01606633346140894,0.0030035819588760566,0.0,0.0,0.0,0.0,0.0,0.0,0.0,0.0,0.0,0.0,0.0,0.0,0.0,0.0,0.0,0.0,0.0,0.0,0.0,0.0,0.0,0.0,0.0,0.0,0.0,0.0,0.0,0.0,0.0,0.0,0.0,0.0,0.0,0.0,0.0,0.0,0.0,0.0,0.0,0.0,0.0,0.0,0.0,0.0,0.0,0.0,0.0,0.0,0.0,0.0,0.0,0.0,0.0,0.0,0.0,0.0,0.0,0.0,0.0,0.0,0.0,0.0,0.0,0.0,0.0,0.0,0.0,0.0,0.0,0.0,0.0,0.0,0.0,0.0,0.0,0.0,0.0,0.0,0.0,0.0
0.6208553110181226,0.6331690234804624,0.5837152877135671,0.4862533791472497,0.3631091922296693,0.23880704194627214,0.13346290966557628,0.05883038329753646,0.016365522228847042,-0.0009933361337720423,-0.004892940157156266,-0.007000074883404149,-0.014909951634786324,-0.030576810482964248,-0.05076651211730965,-0.06932201008089856,-0.08023442016992147,-0.07956559263109561,-0.06684148680206692,-0.044520606132482966,-0.01651872518637097,0.0134774540367429,0.04310753253350999,0.07141502403401064,0.09800991609400402,0.12187723626623884,0.1405686720978894,0.15033399473899073,0.14729302498754673,0.1292191487646244,0.09713995450631577,0.05593283308419449,0.01343739666618769,-0.02180119064945329,-0.04343827665218748,-0.049799934943210784,-0.04487590450547152,-0.037260568690785825,-0.03720297627229171,-0.052663907412183394,-0.08573450698948543,-0.13075851446609876,-0.17499758214742497,-0.20184556019843547,-0.19571744912671152,-0.14712063477225462,-0.056281961758707755,0.06589024090473951,0.1999153084438129,0.3223725378315055,0.4117293230663376,0.4533647710602922,0.4441491001488538,0.39132725161177684,0.31076142433752213,0.22256235112854342,0.14583857071172557,0.09470773840601689,0.0750103059068685,0.08419346953383966,0.11312164420315574,0.14927402042799254,0.18028909236106733,0.19692237753133496,0.19472907939118428,0.17429122936719801,0.14023829434634577,0.09934767592424937,0.05879350375986125,0.024470297001775797,0.0,0.0,0.0,0.0,0.0,0.0,0.0,0.0,0.0,0.0,0.0,0.0,0.0,0.0,0.0,0.0,0.0,0.0,0.0,0.0,0.0,0.0,0.0,0.0,0.0,0.0,0.0,0.0,0.0,0.0,0.0,0.0,0.0,0.0,0.0,0.0,0.0,0.0,0.0,0.0,0.0,0.0,0.0,0.0,0.0,0.0,0.0,0.0,0.0,0.0,0.0,0.0,0.0,0.0,0.0,0.0,0.0,0.0,0.0,0.0,0.0,0.0,0.0,0.0,0.0,0.0,0.0,0.0,0.0,0.0,0.0,0.0,0.0,0.0,0.0,0.0,0.0,0.0,0.0,0.0
0.6100313571156403,0.6117745266589018,0.551994037292744,0.4471857707884573,0.3220274415666391,0.20229966334167648,0.10788091757305741,0.048871709524616815,0.024177830610588417,0.02409264045792528,0.035022025704581974,0.04452176710194525,0.04547109274431475,0.03712311545725026,0.023899651375013844,0.012376653728392915,0.0077608218284199795,0.012223730261453259,0.02408194265755403,0.039331549888263505,0.054047854026877055,0.06656295856307956,0.0783711981137898,0.09331289600700969,0.11537483938148481,0.14608671634299658,0.18271655192931002,0.21817810929798728,0.24287379714443896,0.24788667802598405,0.22833536902649235,0.1855656996337432,0.12724148644067484,0.0651727038724703,0.01158642467488299,-0.024832170053552826,-0.04167037380492682,-0.04325133119831575,-0.03861165272126586,-0.03769296383902634,-0.047122247813510945,-0.06713635325444826,-0.09082281428903365,-0.10603932339717513,-0.099428385683297,-0.06119798160330745,0.01094660830764791,0.11006719942408248,0.22108156739170554,0.3243878000283115,0.4009313515876345,0.4368780153871849,0.4282693055603355,0.3804174212272767,0.3068432719973354,0.22562252427018845,0.15467399725668574,0.10788661882187837,0.09175062651854991,0.1047465882411179,0.13858431255412756,0.18090653341480922,0.2187073036743127,0.2413252554261024,0.24260329344594767,0.22170394273279573,0.18261555222277234,0.13269436004918161,0.08063332489960898,0.034469053601246274,0.0,0.0,0.0,0.0,0.0,0.0,0.0,0.0,0.0,0.0,0.0,0.0,0.0,0.0,0.0,0.0,0.0,0.0,0.0,0.0,0.0,0.0,0.0,0.0,0.0,0.0,0.0,0.0,0.0,0.0,0.0,0.0,0.0,0.0,0.0,0.0,0.0,0.0,0.0,0.0,0.0,0.0,0.0,0.0,0.0,0.0,0.0,0.0,0.0,0.0,0.0,0.0,0.0,0.0,0.0,0.0,0.0,0.0,0.0,0.0,0.0,0.0,0.0,0.0,0.0,0.0,0.0,0.0,0.0,0.0,0.0,0.0,0.0,0.0,0.0,0.0,0.0,0.0,0.0,0.0
0.6398246646124355,0.7238719535270701,0.7615555966525525,0.7523281481887042,0.7028667788575795,0.6247169161873236,0.5309849482949338,0.43412594694989187,0.3433890562617841,0.2641099697158912,0.1980151584015207,0.14432483332454127,0.10109652451175984,0.0664373070755184,0.039191050081463126,0.019050240940210003,0.006131589153742632,0.0005813444954135827,0.0018645059527487948,0.008486350555055198,0.018047104613017742,0.027676040353440068,0.03473689166895138,0.0376043457245472,0.036263837013144305,0.03250308722685513,0.02955436249675776,0.031202596787768776,0.04056081843051022,0.05887114441488362,0.0847502009672908,0.11421529421654668,0.14160159196995797,0.16116973251498212,0.1689143950718303,0.16393687299822107,0.14882228938792316,0.12877064881560837,0.10968251329559821,0.09583464820259072,0.08802186165569853,0.0829658320993314,0.07438893454996887,0.05554009743310772,0.022357238012288744,-0.023905088302214998,-0.07569687895249104,-0.12046426322381598,-0.14405030414896264,-0.13524096327885762,-0.08996972550322124,-0.013999070526136664,0.07883514307571439,0.16838543620017296,0.23425923794119036,0.2616717625302041,0.2454502025076903,0.19265232862763462,0.11893458225312861,0.04441499149885148,-0.012230665488958205,-0.039123946030893066,-0.033777411669882025,-0.003484641026665493,0.037909954919251636,0.07484267165327017,0.0949707158432277,0.09269035251033261,0.07010686092364418,0.03550703195324812,0.0,0.0,0.0,0.0,0.0,0.0,0.0,0.0,0.0,0.0,0.0,0.0,0.0,0.0,0.0,0.0,0.0,0.0,0.0,0.0,0.0,0.0,0.0,0.0,0.0,0.0,0.0,0.0,0.0,0.0,0.0,0.0,0.0,0.0,0.0,0.0,0.0,0.0,0.0,0.0,0.0,0.0,0.0,0.0,0.0,0.0,0.0,0.0,0.0,0.0,0.0,0.0,0.0,0.0,0.0,0.0,0.0,0.0,0.0,0.0,0.0,0.0,0.0,0.0,0.0,0.0,0.0,0.0,0.0,0.0,0.0,0.0,0.0,0.0,0.0,0.0,0.0,0.0,0.0,0.0
0.7538547939664474,0.8007766067075192,0.7780645334103676,0.69452671491483,0.5694036827734191,0.427020676910856,0.29029875321671167,0.17713165471363204,0.0965327115397248,0.048695837339575325,0.027038823459216887,0.02145534665840105,0.02219440541225077,0.022293440197902283,0.01888287581237571,0.012895446886362676,0.007177444048731474,0.005861158224471902,0.011549365830075237,0.02439949386090691,0.04190235258076764,0.05964283317800023,0.07279819345931592,0.07791296201771176,0.07437630504347512,0.06506007690412423,0.055775915959166214,0.05355699656829258,0.06418477774762799,0.08973137896205333,0.1270268307905154,0.16778403762186567,0.20062160356010783,0.21454445102146852,0.20280904676961012,0.16577734714503267,0.1115367974492293,0.053747245212247996,0.007176465199598001,-0.017649609425745783,-0.018720098833017233,-0.003940864149170258,0.011233904703676379,0.009476249625807344,-0.021245183268662288,-0.08160765575418054,-0.15847525666558268,-0.22742925433230643,-0.2599383245399149,-0.23303900082987802,-0.13825185268992063,0.013177221864435427,0.1930818060077937,0.3619648107587634,0.48136318302655123,0.5258842221110294,0.4912759068007024,0.3968702698791106,0.27866046574289627,0.17828894409257337,0.1297711666037922,0.14870180751286088,0.2275808945331635,0.3385768297051654,0.44290255259213185,0.5034776190462709,0.4966585820537588,0.4192809195752641,0.2888378452271214,0.1371665237715219,0.0,0.0,0.0,0.0,0.0,0.0,0.0,0.0,0.0,0.0,0.0,0.0,0.0,0.0,0.0,0.0,0.0,0.0,0.0,0.0,0.0,0.0,0.0,0.0,0.0,0.0,0.0,0.0,0.0,0.0,0.0,0.0,0.0,0.0,0.0,0.0,0.0,0.0,0.0,0.0,0.0,0.0,0.0,0.0,0.0,0.0,0.0,0.0,0.0,0.0,0.0,0.0,0.0,0.0,0.0,0.0,0.0,0.0,0.0,0.0,0.0,0.0,0.0,0.0,0.0,0.0,0.0,0.0,0.0,0.0,0.0,0.0,0.0,0.0,0.0,0.0,0.0,0.0,0.0,0.0
0.5258842221110294,0.47693874950080245,0.3790345203535221,0.265163500962028,0.17226035916712445,0.1297711666037922,0.1505853915343788,0.22716346515413915,0.3343106641235211,0.4374185130824548,0.5034776190462709,0.5112278672265899,0.4571314458551777,0.3555660060394034,0.2333703891897713,0.1208940140710447,0.04240905334405115,0.010200938737598185,0.021874232271791427,0.06316176910116429,0.11399344929087613,0.1556044869601721,0.17622010577857938,0.17361651807349582,0.15412693839666794,0.12893741573320142,0.10934705326657394,0.10280384118482604,0.11100073290369142,0.13039457487270092,0.15457545005808299,0.17730938740851587,0.19498502255103925,0.20758594423997895,0.21798138979792028,0.22999676616487305,0.24614631857234417,0.2659594002098696,0.2855365264248321,0.2984788346699541,0.29784079199685626,0.2784286050040216,0.23869123265110787,0.18161637936910452,0.11436626064974688,0.04675306689413215,-0.011040316452002052,-0.05090746614622005,-0.06881267384999351,-0.06581651371346665,-0.04783410762613945,-0.0243891458110262,-0.00509130477805083,0.001870846174913246,-0.007240917762904357,-0.03025890792580447,-0.059373611090768885,-0.08283448574682328,-0.08858133503602394,-0.06786849014393212,-0.01835469634965445,0.05419583628947662,0.1376841935361958,0.21529133565204842,0.2702908741511468,0.2905781413924324,0.27194035314876525,0.21941648424649762,0.14555557967375274,0.0670083250591829,0.0,0.0,0.0,0.0,0.0,0.0,0.0,0.0,0.0,0.0,0.0,0.0,0.0,0.0,0.0,0.0,0.0,0.0,0.0,0.0,0.0,0.0,0.0,0.0,0.0,0.0,0.0,0.0,0.0,0.0,0.0,0.0,0.0,0.0,0.0,0.0,0.0,0.0,0.0,0.0,0.0,0.0,0.0,0.0,0.0,0.0,0.0,0.0,0.0,0.0,0.0,0.0,0.0,0.0,0.0,0.0,0.0,0.0,0.0,0.0,0.0,0.0,0.0,0.0,0.0,0.0,0.0,0.0,0.0,0.0,0.0,0.0,0.0,0.0,0.0,0.0,0.0,0.0,0.0,0.0
0.5034776190462709,0.490724320930256,0.42575582337653173,0.326217497852443,0.21650684723103675,0.12089401407104469,0.056846251930439406,0.031753916567043794,0.04173390272414816,0.07445827294474452,0.11399344929087614,0.14581847900196132,0.1615614797808967,0.16003124616016698,0.14633406788333747,0.12893741573320142,0.11573634123255074,0.11228113868792718,0.11967952857187472,0.1353007839358306,0.154575450058083,0.17321991131384448,0.1889560846028007,0.20210062346010338,0.21490159651337756,0.22999676616487302,0.2486759828061848,0.26965970734674294,0.2888760369153971,0.3003383462445511,0.29784079199685626,0.27692645575995184,0.23651107035617755,0.17966229348351595,0.1132837791369152,0.04675306689413215,-0.010165619659278882,-0.049625398411988784,-0.06763935232131651,-0.06514228862986318,-0.04783410762613945,-0.024748130925352208,-0.005819159320643832,0.0009665674520674926,-0.007935111108425449,-0.03025890792580447,-0.05821613533836569,-0.0805137595283942,-0.08564546327982327,-0.06552959891403687,-0.018354696349654448,0.05010112186938599,0.1286793957945306,0.2027954722460937,0.259296783093539,0.2905781413924324,0.29692538604834684,0.2865563577353958,0.272472355881676,0.2679838699295711,0.2818898999871777,0.3150084435392062,0.3596174212037072,0.4013506142777642,0.4238160492902808,0.41396345740849755,0.36645916120641153,0.28598221144658575,0.1858629746907418,0.08446892089734748,0.0,0.0,0.0,0.0,0.0,0.0,0.0,0.0,0.0,0.0,0.0,0.0,0.0,0.0,0.0,0.0,0.0,0.0,0.0,0.0,0.0,0.0,0.0,0.0,0.0,0.0,0.0,0.0,0.0,0.0,0.0,0.0,0.0,0.0,0.0,0.0,0.0,0.0,0.0,0.0,0.0,0.0,0.0,0.0,0.0,0.0,0.0,0.0,0.0,0.0,0.0,0.0,0.0,0.0,0.0,0.0,0.0,0.0,0.0,0.0,0.0,0.0,0.0,0.0,0.0,0.0,0.0,0.0,0.0,0.0,0.0,0.0,0.0,0.0,0.0,0.0,0.0,0.0,0.0,0.0
0.943224548094043,1.0593027507880022,1.1064786279155672,1.08626875315085,1.0106963475371664,0.8981978654704516,0.7682223154552356,0.6383377427320953,0.5205075791855732,0.42069757187332296,0.339925108468822,0.27599040562597094,0.2264517031698894,0.18941350683659927,0.16411121578241497,0.15040450738759042,0.14763364443340235,0.15415968885385078,0.16662637784209466,0.18037128610814385,0.19038950586786813,0.19263342713356235,0.18523100285054941,0.1692249748371542,0.14856550364324952,0.12928539659278593,0.11800285781341872,0.12008706826733347,0.13794734541847073,0.16993246302308435,0.2102285916646036,0.24992041505632284,0.27906466514415645,0.28929449967187,0.2762320999152317,0.2409387334082569,0.1898348943636031,0.13295584294632332,0.08095586813949321,0.041757343340019404,0.017969897023429424,0.006058271574942333,-0.002282895190061289,-0.016837961175202146,-0.04468014211653533,-0.08653222295433394,-0.13507566018364955,-0.1760404752904128,-0.19199150839012924,-0.16776333942877117,-0.09583196291492906,0.019710263641578598,0.16470840793857983,0.3156785481009123,0.44656927688057096,0.5355846255752411,0.5703201488610475,0.552199829726967,0.49314547416985544,0.4122626667837327,0.32998219844904286,0.26217113576930584,0.21698941156300633,0.19313467157011652,0.18226075334025654,0.17308874230122348,0.15587183912952907,0.1261005195566588,0.08535323251291752,0.040325222499000626,0.0,0.0,0.0,0.0,0.0,0.0,0.0,0.0,0.0,0.0,0.0,0.0,0.0,0.0,0.0,0.0,0.0,0.0,0.0,0.0,0.0,0.0,0.0,0.0,0.0,0.0,0.0,0.0,0.0,0.0,0.0,0.0,0.0,0.0,0.0,0.0,0.0,0.0,0.0,0.0,0.0,0.0,0.0,0.0,0.0,0.0,0.0,0.0,0.0,0.0,0.0,0.0,0.0,0.0,0.0,0.0,0.0,0.0,0.0,0.0,0.0,0.0,0.0,0.0,0.0,0.0,0.0,0.0,0.0,0.0,0.0,0.0,0.0,0.0,0.0,0.0,0.0,0.0,0.0,0.0
0.5355846255752411,0.5651315844125737,0.5475426246641888,0.4917058925425895,0.4132415624516353,0.32998219844904286,0.2572618364616317,0.20494112878127854,0.17596437944482163,0.1674206104147103,0.17308874230122345,0.18633655187753884,0.20293063318967342,0.22183201779959674,0.2448560740925123,0.2751773768239389,0.3155803187289056,0.36694425951646353,0.42799612868203996,0.49589011705225305,0.5674074566811048,0.6401048222915181,0.7128302059288398,0.7853325719511915,0.857115185232251,0.9260447570652175,0.9873809042618297,1.0337704207256357,1.0564039969232855,1.047092244140146,1.0006505165814363,0.9168256216508363,0.8011093336597663,0.6641221580247003,0.5196945541323289,0.38216763469880055,0.26365101006730585,0.17195043939818647,0.10963669050028921,0.0743650373301281,0.06019975999210526,0.0594622481786462,0.06456431458482295,0.06940149556529408,0.07009872660383346,0.06513063196389252,0.05499922615122227,0.04170130166726137,0.028164866475045406,0.017727769973830538,0.013636346846027922,0.018232528638441863,0.03342559345334232,0.05875273950220248,0.09156509847021285,0.12713729098265167,0.15911026556778926,0.18124375413423371,0.18797470095385324,0.17614820613686347,0.146049218922758,0.10157971003883912,0.04993674470601299,-0.0003232182959863397,-0.041057849599907686,-0.06640307465468391,-0.07420296397961108,-0.06582047996121132,-0.04618115066244857,-0.02201834164014352,0.0,0.0,0.0,0.0,0.0,0.0,0.0,0.0,0.0,0.0,0.0,0.0,0.0,0.0,0.0,0.0,0.0,0.0,0.0,0.0,0.0,0.0,0.0,0.0,0.0,0.0,0.0,0.0,0.0,0.0,0.0,0.0,0.0,0.0,0.0,0.0,0.0,0.0,0.0,0.0,0.0,0.0,0.0,0.0,0.0,0.0,0.0,0.0,0.0,0.0,0.0,0.0,0.0,0.0,0.0,0.0,0.0,0.0,0.0,0.0,0.0,0.0,0.0,0.0,0.0,0.0,0.0,0.0,0.0,0.0,0.0,0.0,0.0,0.0,0.0,0.0,0.0,0.0,0.0,0.0
1.0006505165814363,1.0210186478003933,0.9412391115657274,0.7832444310909257,0.5833386185862225,0.3821676346988006,0.21406201910615275,0.10026312116173548,0.04515752650471662,0.038325904549821904,0.060199759992105244,0.08916215433753903,0.10842948962980209,0.10952321010116428,0.09281375519929458,0.06513063196389253,0.035599855218849556,0.012729939125901835,0.0013847252004971027,0.0024045819864568496,0.01363634684602791,0.03171456984552545,0.053649947905671326,0.07756391923908455,0.1024240405964985,0.12713729098265167,0.14963598482072296,0.16654787111881916,0.17372634862323863,0.16748721986523663,0.146049218922758,0.11055348125212643,0.06518510848434905,0.01626741839946743,-0.029400886517943786,-0.06640307465468391,-0.09211692684511273,-0.10720117331059961,-0.1149982119151512,-0.12006127851029372,-0.12629490486954484,-0.13530760084207313,-0.14549539190278582,-0.15214655358785986,-0.14856199672199924,-0.12790871316897925,-0.08533206862116778,-0.019781198343478048,0.06494526056977068,0.16026524831592825,0.2540847827213121,0.3325771712331423,0.3850292541263238,0.4040570981306157,0.38863901346058194,0.34487245956150875,0.2847633753832882,0.22428760407141568,0.17862430111299876,0.15864695330574474,0.16804242353491217,0.202219104941396,0.24956800551165814,0.2944153058378666,0.321334644244369,0.3193625006086845,0.2849305101571957,0.22285996870465158,0.14473178006377885,0.0656321212598297,0.0,0.0,0.0,0.0,0.0,0.0,0.0,0.0,0.0,0.0,0.0,0.0,0.0,0.0,0.0,0.0,0.0,0.0,0.0,0.0,0.0,0.0,0.0,0.0,0.0,0.0,0.0,0.0,0.0,0.0,0.0,0.0,0.0,0.0,0.0,0.0,0.0,0.0,0.0,0.0,0.0,0.0,0.0,0.0,0.0,0.0,0.0,0.0,0.0,0.0,0.0,0.0,0.0,0.0,0.0,0.0,0.0,0.0,0.0,0.0,0.0,0.0,0.0,0.0,0.0,0.0,0.0,0.0,0.0,0.0,0.0,0.0,0.0,0.0,0.0,0.0,0.0,0.0,0.0,0.0
0.8060816577955024,0.9137386602126883,0.9632669264191743,0.9536194778327775,0.8929371494202166,0.7957171843371783,0.6790047718773924,0.5588193788934891,0.44748676500019824,0.3525086344266032,0.27683457545772183,0.21971702383097189,0.17940352346531796,0.1535643522379747,0.140141550295998,0.13732687369781704,0.14280116975460458,0.15440785279597435,0.16924660366878747,0.18417146398757828,0.19639345746338024,0.20416718803741407,0.20728942745600343,0.20720670228998708,0.20667107728897774,0.2090370516246428,0.217400081393875,0.2338067534251193,0.2587202923314546,0.2908329365950205,0.327219967380471,0.3637624368575284,0.39574034719424345,0.41850654423613975,0.4281716531770201,0.4222399439420485,0.40012557893452283,0.36345648986484635,0.3160608805831767,0.26355283824702186,0.21250124053933797,0.16927216858540314,0.1387505685149211,0.12323103277496528,0.12178222069108427,0.13031477724759158,0.1424268948755887,0.1509015112005806,0.14953974016959964,0.1348935625221188,0.10744794504957252,0.07149556856250248,0.03599010999344244,0.010810744844665134,0.00535710446360747,0.026357537761856658,0.07567574386039667,0.15093400861961148,0.24361058617176606,0.3411285851777638,0.4291366313104463,0.4940461725626075,0.5260844478934614,0.5203941814160641,0.47808463763888764,0.40587084111100574,0.3145812061061306,0.21727340808426915,0.12646118090307407,0.05207896410292848,0.0,0.0,0.0,0.0,0.0,0.0,0.0,0.0,0.0,0.0,0.0,0.0,0.0,0.0,0.0,0.0,0.0,0.0,0.0,0.0,0.0,0.0,0.0,0.0,0.0,0.0,0.0,0.0,0.0,0.0,0.0,0.0,0.0,0.0,0.0,0.0,0.0,0.0,0.0,0.0,0.0,0.0,0.0,0.0,0.0,0.0,0.0,0.0,0.0,0.0,0.0,0.0,0.0,0.0,0.0,0.0,0.0,0.0,0.0,0.0,0.0,0.0,0.0,0.0,0.0,0.0,0.0,0.0,0.0,0.0,0.0,0.0,0.0,0.0,0.0,0.0,0.0,0.0,0.0,0.0
0.7022268362591192,0.7834281952414791,0.8062098866857715,0.7696346375833315,0.6822057438861195,0.559427120282014,0.4202789773033552,0.2830601850646741,0.16246300785054746,0.06764311905066278,0.0018225201609620096,-0.0370270474080214,-0.05397285988891602,-0.05565083030544142,-0.04854811304199388,-0.03794746965014849,-0.027484183684093697,-0.01919580147094247,-0.013855723767354748,-0.011383840683440154,-0.011193161208056374,-0.012418694249285466,-0.014045746971369852,-0.014988449684672693,-0.014165681221710386,-0.010596283623106197,-0.0035091860844792574,0.007548284892518927,0.02261624566640058,0.04124236019284871,0.062410429979618084,0.08448244563400356,0.10518564053477124,0.12170469801122626,0.130948452989306,0.13003152082415423,0.11693983013460177,0.09125177545689846,0.054699827997526755,0.01132508521023924,-0.03296661544679905,-0.07148793678420517,-0.09832112312418552,-0.10995738735320396,-0.1065225482769452,-0.09211613387256527,-0.07399428515304335,-0.06066427190897694,-0.059333139330670415,-0.07343728146573444,-0.10105860230753366,-0.13520966847328214,-0.16407987268300425,-0.1758594457708484,-0.16160142490320656,-0.11820101504103411,-0.05020733624533121,0.03179287245342666,0.11226345889559076,0.17519575354988207,0.2083576623706427,0.2065392325796514,0.17282407562193783,0.11750915993127871,0.055051382255126895,0.0,0.0,0.0,0.0,0.0,0.0,0.0,0.0,0.0,0.0,0.0,0.0,0.0,0.0,0.0,0.0,0.0,0.0,0.0,0.0,0.0,0.0,0.0,0.0,0.0,0.0,0.0,0.0,0.0,0.0,0.0,0.0,0.0,0.0,0.0,0.0,0.0,0.0,0.0,0.0,0.0,0.0,0.0,0.0,0.0,0.0,0.0,0.0,0.0,0.0,0.0,0.0,0.0,0.0,0.0,0.0,0.0,0.0,0.0,0.0,0.0,0.0,0.0,0.0,0.0,0.0,0.0,0.0,0.0,0.0,0.0,0.0,0.0,0.0,0.0,0.0,0.0,0.0,0.0,0.0,0.0,0.0,0.0,0.0,0.0
0.7151938962423727,0.8127924871993747,0.8518547223615984,0.828168285075705,0.748569259809862,0.6293999334348958,0.4921156310370132,0.36019324616283466,0.2524044819136854,0.17906833513805856,0.14015334583797273,0.1259505226921331,0.1214898833071702,0.11128377132996342,0.08498795247430066,0.04138751643690161,-0.010471415766352413,-0.053534812467462625,-0.06787309409189121,-0.03723516424904117,0.04498184632722133,0.17228740538547982,0.32541901319462885,0.4765363169452994,0.5961749968874253,0.6609456685081616,0.6596866543166053,0.5962340557160773,0.4880179640240617,0.3609876405132654,0.24248321200792708,0.1542419083453843,0.1075778316672708,0.1019788815226481,0.1272139254572616,0.1679389111852678,0.20909923396705185,0.24035204480951675,0.25825440829325136,0.26585290864449107,0.2702266586256162,0.2791553891022017,0.29821743074981544,0.32927173715588154,0.3706232120996036,0.41848708917357713,0.468916664907782,0.5192880408453356,0.568735232341788,0.617446534975151,0.6652440680536174,0.7098017567430284,0.7473600328331647,0.7712993629257822,0.7743478719582678,0.7507319949426919,0.6978203012870748,0.6184702575602037,0.5192768216413242,0.4099126921422173,0.30116335203384725,0.20272164814256907,0.12174656298697624,0.0616012539466024,0.022032345793735475,0.0,0.0,0.0,0.0,0.0,0.0,0.0,0.0,0.0,0.0,0.0,0.0,0.0,0.0,0.0,0.0,0.0,0.0,0.0,0.0,0.0,0.0,0.0,0.0,0.0,0.0,0.0,0.0,0.0,0.0,0.0,0.0,0.0,0.0,0.0,0.0,0.0,0.0,0.0,0.0,0.0,0.0,0.0,0.0,0.0,0.0,0.0,0.0,0.0,0.0,0.0,0.0,0.0,0.0,0.0,0.0,0.0,0.0,0.0,0.0,0.0,0.0,0.0,0.0,0.0,0.0,0.0,0.0,0.0,0.0,0.0,0.0,0.0,0.0,0.0,0.0,0.0,0.0,0.0,0.0,0.0,0.0,0.0,0.0,0.0
0.6609456685081616,0.6644672001578598,0.6024529426034604,0.4930739112127579,0.3635360317229658,0.24248321200792708,0.15250418451552905,0.10531362594112352,0.1001960152288783,0.12637762612007586,0.16793891118526777,0.20937092604184715,0.24041878028418356,0.2579636111138643,0.26545868612351525,0.2702266586256162,0.27996969962445395,0.29987543289419527,0.331275525182275,0.3720809866690987,0.41848708917357713,0.4669931649548597,0.5157680646426505,0.564779909312479,0.6147118917381242,0.6652440680536174,0.7135675589549483,0.7539063709320623,0.7784033616342565,0.7791596188458055,0.7507319949426919,0.692182474062552,0.607912952665074,0.5069488468144133,0.40088450876565046,0.30116335203384725,0.21656880913884824,0.15168538587753808,0.10671110033350788,0.07851617848397499,0.06243190078180674,0.0540623338848334,0.05049355235410558,0.05057769520800487,0.054361643205345395,0.062056605074979766,0.07308576024696564,0.08566167040258037,0.09708243350874271,0.10461013636274184,0.10653978333611847,0.10264095812806892,0.09559339289457999,0.08865316761985076,0.08513820138709699,0.08719530222988577,0.09475892016081998,0.10579135155251432,0.1162267373847653,0.1214399671906784,0.11775699887403517,0.10362150252320972,0.08049557250539778,0.05211980723574406,0.023610051801964488,0.0,0.0,0.0,0.0,0.0,0.0,0.0,0.0,0.0,0.0,0.0,0.0,0.0,0.0,0.0,0.0,0.0,0.0,0.0,0.0,0.0,0.0,0.0,0.0,0.0,0.0,0.0,0.0,0.0,0.0,0.0,0.0,0.0,0.0,0.0,0.0,0.0,0.0,0.0,0.0,0.0,0.0,0.0,0.0,0.0,0.0,0.0,0.0,0.0,0.0,0.0,0.0,0.0,0.0,0.0,0.0,0.0,0.0,0.0,0.0,0.0,0.0,0.0,0.0,0.0,0.0,0.0,0.0,0.0,0.0,0.0,0.0,0.0,0.0,0.0,0.0,0.0,0.0,0.0,0.0,0.0,0.0,0.0,0.0,0.0
0.7507319949426919,0.7662679222152158,0.7079047206015926,0.5924113849409298,0.44688440063756285,0.3011633520338473,0.1797587520003778,0.09759666562969925,0.05710480332867511,0.050147242679672833,0.06243190078180674,0.07884862417910901,0.08843791825815864,0.08673574048493671,0.07580899496783769,0.062056605074979766,0.0528956686513616,0.053607079512077514,0.06538274731649905,0.08507715903135936,0.10653978333611845,0.12290713745738736,0.12900321336753195,0.12306414136834704,0.10729870482808004,0.08719530222988575,0.06985759973719556,0.06189957847172274,0.06751239408353221,0.08723519309069283,0.11775699887403519,0.15280040111980622,0.1848497447524805,0.20724864615736863,0.2160635852170155,0.21113887967412828,0.19597014630368803,0.17636705436532144,0.15827600745808507,0.14546368018193503,0.13789464732444862,0.13148909824830932,0.11952788432825517,0.09539458939786771,0.05579989975132465,0.0033310394314648166,-0.05274539916058358,-0.09800737603751132,-0.11654423300925786,-0.0957969170357359,-0.031079102146295112,0.07137458759146666,0.1961454052315224,0.320033051429197,0.4184202020011626,0.4716351710200869,0.4699085607597972,0.4162904055095311,0.3247436811038924,0.2162899226302386,0.11319777489007644,0.03323230653195493,-0.014184737633432962,-0.029327291437036343,-0.020436453152990464,0.0,0.0,0.0,0.0,0.0,0.0,0.0,0.0,0.0,0.0,0.0,0.0,0.0,0.0,0.0,0.0,0.0,0.0,0.0,0.0,0.0,0.0,0.0,0.0,0.0,0.0,0.0,0.0,0.0,0.0,0.0,0.0,0.0,0.0,0.0,0.0,0.0,0.0,0.0,0.0,0.0,0.0,0.0,0.0,0.0,0.0,0.0,0.0,0.0,0.0,0.0,0.0,0.0,0.0,0.0,0.0,0.0,0.0,0.0,0.0,0.0,0.0,0.0,0.0,0.0,0.0,0.0,0.0,0.0,0.0,0.0,0.0,0.0,0.0,0.0,0.0,0.0,0.0,0.0,0.0,0.0,0.0,0.0,0.0,0.0
0.4716351710200869,0.45799047773775087,0.3955714111118592,0.301627712606929,0.19973665458918216,0.11319777489007644,0.058906813858220594,0.0435050619713801,0.06288176329640725,0.10486311675097783,0.153985448248742,0.19666679953536176,0.22497534017899132,0.2381515926560499,0.2415091996693771,0.24351071984277345,0.2522605322314172,0.2727204371682392,0.305530968763676,0.34762419187989,0.3941228359598323,0.4405912978507562,0.484673056071283,0.5264927410677617,0.5677568836215013,0.610025640244496,0.6529437479897141,0.6932077592654989,0.7247349686662236,0.740025065523865,0.7322564699554229,0.6973995571095746,0.635639730761768,0.5516604168483362,0.45372881478948796,0.35190738014445855,0.2559532335056821,0.17350149322346758,0.10897139559823464,0.0633639316246176,0.03484146968792382,0.019784238315436298,0.013952731849431504,0.013443686468306949,0.015264215763185974,0.017501832725110484,0.019184710866583563,0.019980007332779097,0.019870811098813015,0.018906908442083162,0.01706938119545448,0.014002940450118946,0.010006191345782019,0.0049198898589716674,-0.0012776193463418717,-0.008319515387616232,-0.015649019855785262,-0.02225962536050849,-0.027166172600140533,-0.029536086110329977,-0.0289159108572984,-0.02546366896786577,-0.019670786803818046,-0.012639218771729743,-0.005681827561142613,0.0,0.0,0.0,0.0,0.0,0.0,0.0,0.0,0.0,0.0,0.0,0.0,0.0,0.0,0.0,0.0,0.0,0.0,0.0,0.0,0.0,0.0,0.0,0.0,0.0,0.0,0.0,0.0,0.0,0.0,0.0,0.0,0.0,0.0,0.0,0.0,0.0,0.0,0.0,0.0,0.0,0.0,0.0,0.0,0.0,0.0,0.0,0.0,0.0,0.0,0.0,0.0,0.0,0.0,0.0,0.0,0.0,0.0,0.0,0.0,0.0,0.0,0.0,0.0,0.0,0.0,0.0,0.0,0.0,0.0,0.0,0.0,0.0,0.0,0.0,0.0,0.0,0.0,0.0,0.0,0.0,0.0,0.0,0.0,0.0
0.7322564699554229,0.7626105474015744,0.7229079960343777,0.6255482404464658,0.49308164949183836,0.3519073801444586,0.2257054246300647,0.1299834880546137,0.07003284816642871,0.04172817877586023,0.03484146968792381,0.036932922414211276,0.038794021831611625,0.03561564369971453,0.027433565994734475,0.017501832725110498,0.009826082008773326,0.006961110973486092,0.00890558395092182,0.013367168086690522,0.017069381195454463,0.017370660472643053,0.013412705786538102,0.006304755985264485,-0.0016627181888726771,-0.008319515387616215,-0.012743916105282478,-0.01562512287703549,-0.018647570404855582,-0.023177838393355476,-0.02891591085729842,-0.03325893526337228,-0.03185840946493998,-0.02032662708065123,0.0035174441225936486,0.037826717409515036,0.07625475487480703,0.1093044095004654,0.12724398100075954,0.12363112332641155,0.09809390674844343,0.05714336972694184,0.01243747079284311,-0.023126083197636087,-0.04019701641943063,-0.03685087603462956,-0.01992831596327594,-0.003021189524304524,-0.001508271546457246,-0.02622559571441567,-0.07804607396684637,-0.14591170925052016,-0.20735432324528444,-0.2364362543364532,-0.21141087301428274,-0.12267333610536826,0.022215572048351367,0.19937749981871616,0.3731709620356483,0.5058749763582874,0.568135827472921,0.5472204438560168,0.45058182229424737,0.3034131096793355,0.14127122939030512,0.0,0.0,0.0,0.0,0.0,0.0,0.0,0.0,0.0,0.0,0.0,0.0,0.0,0.0,0.0,0.0,0.0,0.0,0.0,0.0,0.0,0.0,0.0,0.0,0.0,0.0,0.0,0.0,0.0,0.0,0.0,0.0,0.0,0.0,0.0,0.0,0.0,0.0,0.0,0.0,0.0,0.0,0.0,0.0,0.0,0.0,0.0,0.0,0.0,0.0,0.0,0.0,0.0,0.0,0.0,0.0,0.0,0.0,0.0,0.0,0.0,0.0,0.0,0.0,0.0,0.0,0.0,0.0,0.0,0.0,0.0,0.0,0.0,0.0,0.0,0.0,0.0,0.0,0.0,0.0,0.0,0.0,0.0,0.0,0.0
0.568135827472921,0.5779964180069672,0.5320204752540344,0.4437832663760847,0.3347301457464277,0.228222560498566,0.14353035948937495,0.0917812792211179,0.07444101706866134,0.08484824804818594,0.11179449861498982,0.14374008493424376,0.1724425028757029,0.1945942903942236,0.2115619638151216,0.22755948548947583,0.24723816460479575,0.27370962099886703,0.30768589694097104,0.34786330094817486,0.3921343712761496,0.438900499079274,0.4877842004507433,0.5393702105087747,0.5940835951862327,0.6507337187956976,0.705440561239546,0.7515404367963634,0.7806932557639874,0.7849353579546533,0.7590303085420399,0.7023169582670409,0.6193967450656797,0.5193846048438795,0.41392617824307865,0.3145841430029803,0.2303798877604735,0.16618931655073216,0.12237864059101917,0.09564959950320101,0.0806932332903561,0.07204862667145695,0.06558039277217673,0.05919677827061858,0.05273626061555775,0.047237267994831494,0.04397622741297702,0.043669293729695954,0.04610132434364373,0.05023925140012468,0.05469186093151695,0.0579730065567426,0.06002607253576461,0.06085419914196052,0.0608840154943277,0.060640154648253994,0.060271332447068636,0.05977882603826962,0.058443302644454125,0.05531247656407333,0.049625079222241096,0.04114048073238488,0.03055182969389514,0.01911495548112669,0.0084310444366272,0.0,0.0,0.0,0.0,0.0,0.0,0.0,0.0,0.0,0.0,0.0,0.0,0.0,0.0,0.0,0.0,0.0,0.0,0.0,0.0,0.0,0.0,0.0,0.0,0.0,0.0,0.0,0.0,0.0,0.0,0.0,0.0,0.0,0.0,0.0,0.0,0.0,0.0,0.0,0.0,0.0,0.0,0.0,0.0,0.0,0.0,0.0,0.0,0.0,0.0,0.0,0.0,0.0,0.0,0.0,0.0,0.0,0.0,0.0,0.0,0.0,0.0,0.0,0.0,0.0,0.0,0.0,0.0,0.0,0.0,0.0,0.0,0.0,0.0,0.0,0.0,0.0,0.0,0.0,0.0,0.0,0.0,0.0,0.0,0.0
