0.5792278968763475,0.6381868789897811,0.6577030165129614,0.6450888515353159,0.6135974387470464,0.5782200488008197,0.5511330132445079,0.5394935305026431,0.5437741121963529,0.5589796122898134,0.5772122007252919,0.5904941529037954,0.5940787257734783,0.587108872944574,0.5724411139154186,0.5550853713696898,0.5398851602704554,0.5304098702390979,0.5274793792917052,0.5294046616199748,0.5329585420140877,0.5345338140597393,0.5320040046404425,0.5248989664591284,0.5144340164993577,0.5028109186785483,0.49206679012757626,0.4838242172626772,0.4784406114379123,0.47518170909397606,0.4726632953430091,0.4692775842940221,0.46422289352945967,0.45736051922545234,0.4492312385497245,0.44072971423459584,0.4325469394748734,0.42532359942705106,0.4191727346824492,0.4138233028047849,0.4087961331261825,0.4034730059542711,0.3976666035092606,0.3913633603979281,0.3847457954882906,0.37807079970967655,0.37142420835789663,0.3650165198152198,0.3588924833855929,0.35302442631769937,0.34734546629317054,0.34136899676496446,0.33567038887756057,0.3301487341430708,0.32466741171700314,0.31912033670689266,0.3130777490539229,0.30721522370399923,0.3015730687141972,0.2961435717376114,0.29089520712061473,0.2854065088490812,0.28025506941659967,0.2753367175020565,0.2704929498693902,0.2655879404284398,0.26020308036980877,0.25495858251999975,0.24989073438660284,0.24500227252849816,0.24028067373626477,0.2353702448896326,0.2308026246306651,0.22647773227050788,0.22223655568969666,0.21793828239220966,0.21320487015676548,0.20858246914026124,0.20410327059943464,0.19977516865803202,0.1955958910481545,0.19127123750819316,0.18726859099220783,0.18349531828973945,0.17980197198895992,0.17605471622256044,0.17192698056827452,0.167887958406879,0.16396663419577423,0.16017391543632348,0.1565135413969664,0.15274676261433803,0.14927246638829314,0.14600624114593988,0.14281173963984725,0.13956653151087361,0.13599629523417286,0.13249639773941277,0.12909282085848622,0.12579808082230703,0.12261952162478085,0.11936734313980059,0.11637464748923604,0.11356534960950149,0.11081732377367784,0.10802120874418245,0.10495207760728699,0.10193820240353693,0.0990033862908867,0.09616157507314299,0.09342289586358403,0.0906404848820965,0.08808745115496537,0.08569553448060115,0.08335610886108422,0.08097213115525878,0.07836215862781094,0.07579391394670895,0.07328855218954863,0.07086045232007268,0.06852136644693353,0.06616089795139612,0.0639991524090663,0.06197562988433983,0.05999503769677669,0.05797271583416961,0.05576639673932948,0.05359107568539171,0.05146595159963486,0.049405891106954695,0.047424065221405694,0.04544228332307244,0.04363393618791335,0.04194547102725939,0.04029331929524398,0.03860338175975264,0.03676636651387274,0.0349503441777028,0.033171705827300994,0.03144466817749866,0.029782698298099586,0.028133713036612114,0.02663120385744142,0.025228648737330342,0.023854247520346344,0.022444832010605317,0.02092029332625567,0.01940975254767381,0.017928076712669765,0.016489304229990343,0.015106965723111048,0.013750179747517277,0.012517398098328468,0.011367358176115306,0.010237781253797327,0.009074563340887794,0.007822119888923002,0.006577069192911688,0.005354546425194138,0.004170772023520704,0.0030421609586645413,0.0019582951446786533,0.000990449776708615,0.00010348261136404187,-0.00075688615770943,-0.0016396142699799006,-0.002585415197117626,-0.003533040526965931,-0.00447688109199776,-0.005409355408624581,-0.0063213894986243425,-0.0072141409762286005,-0.008042387466665293,-0.008834020444623775,-0.009628654756664861,-0.01045756512634433,-0.01133194277117188,-0.012200171563859111,-0.013044625287338402,-0.013847562727944726,-0.014593740754064317,-0.015271645680438846,-0.01586010528174416,-0.0163908509051204,-0.01690759451178092,-0.017447665521233967,-0.018020759023593527,-0.018604630713519216,-0.019189236232931707,-0.019760086031106232,-0.020301590288403618,-0.020790045515505843,-0.021215826476636186,-0.02160129347211056,-0.02197894921414952,-0.022376828471141877,-0.022791858807843034,-0.023217239537332266,-0.02364445018899904,-0.024060679684711792,-0.024452066653880136,-0.02478938801893335,-0.02507690419600508,-0.025333501041883626,-0.02558575067317244,-0.025856187934855713,-0.026132949990145503,-0.026421642343763235,-0.02671428109961971,-0.026998351738174324,-0.02726030921583129,-0.02746625473539111,-0.027630726834561952,-0.02776934217014695,-0.027903829181629078,-0.028052800301602003,-0.028199223316079387,-0.02835968676316874,-0.028528250451456374,-0.028694155740496077,-0.02884529138737272,-0.02894552756122727,-0.029016641843980097,-0.02907053241475876,-0.029123359344748342,-0.029188661956630942,-0.0292440913925128,-0.029313305475266664,-0.02939097056354979,-0.02946739556219809,-0.02953203252588917,-0.0295483365521956,-0.029545334310129987,-0.029532757203388906,-0.029522628038362576,-0.029524286138721153,-0.029511360812680118,-0.029511758689141798,-0.029519450820985428,-0.029524435386311363,-0.029516539751553137,-0.029459653080838567,-0.02938741997629305,-0.029308511043041142,-0.029232794109720857,-0.02916760873234523,-0.029085647615451793,-0.02901788913206217,-0.028957889767486616,-0.028895026452890105,-0.02881867771313732,-0.028693098235512898,-0.02855384722964745,-0.028408053533102322,-0.028263706741748676,-0.028127047992209126,-0.027972074390565854,-0.02783269802557981,-0.027703501419992907,-0.027574502258525035,-0.027435418271280935,-0.027251903708150636,-0.0270595473099556,-0.026863156807667796,-0.026667948850524544,-0.026478131286685053,-0.0262689453262475,-0.02607516953142289,-0.025892101591178874,-0.025710517411855472,-0.02552084430208917,-0.025291345494405097,-0.025056750571615365,-0.024819952139610718,-0.024583783114885877,-0.024350679775959373,-0.024097908562555247,-0.023860030275817692,-0.023633241779046216,-0.023409500504227996,-0.023180515249829576,-0.022918320978382284,-0.022656295841441073,-0.022395707687525288,-0.022137015588841437,-0.021880465156993198,-0.021604910632571188,-0.021342702025420903,-0.021089733688457145,-0.020838176328451554,-0.020580415064156816,-0.020292398547913645,-0.020005861611306436,-0.01972134061338887,-0.01943817741849651,-0.01915574619924043,-0.018855943851447877,-0.01856897342632539,-0.01829081124891815,-0.01801390120941892
1.0006505165814363,1.10173490966892,1.1341476022445718,1.1104960739329583,1.0537484320598403,0.9899760322011781,0.9403897439666197,0.9177158481957945,0.9230883871147773,0.9481257844561217,0.9793015478209198,1.0027033418475764,1.0100198854973335,0.9995311059959645,0.9759144024292803,0.9476088965743329,0.922757009229275,0.9075913662029457,0.903657238371883,0.9082293510227346,0.9159162453277462,0.9204913004866461,0.9183766747095762,0.9087104147890219,0.8934742908261796,0.8763194279857047,0.8605068574028123,0.8488378254615068,0.841952049774842,0.8386720024592788,0.8367226106436633,0.8333015056048937,0.82716822268814,0.818115821312014,0.8070582301721656,0.7954713194897086,0.784323421459134,0.7747270834965694,0.7668604938296751,0.760283383845267,0.754220028335754,0.7475231292618526,0.7400123755921642,0.731727277112895,0.7230187247919536,0.7143224147628574,0.705599195968406,0.6972443181843596,0.6893083731365152,0.6817377646100267,0.6744248011899608,0.6664036315187251,0.6587980662514507,0.6515045719540584,0.6443515607527946,0.6371859037048951,0.6291100501477537,0.6213377499006222,0.6139145838582701,0.6068078140895564,0.5999470062198292,0.5924585389944056,0.5854401575496293,0.5787839669539621,0.5722966916482688,0.5657967485565837,0.558424276595177,0.5513097672116857,0.5444942435985306,0.5379563328012472,0.5316464908933382,0.5247834025803625,0.5183910323789833,0.5123645447844851,0.5065104124864258,0.5006433775465466,0.49397012709778815,0.4875196633347249,0.4813284094198953,0.47538108296034787,0.4696402641997552,0.46341207311039706,0.4576288919079711,0.4521923676903031,0.4469188536187486,0.4416313999658327,0.43561355663898854,0.429790451696046,0.4241948320138721,0.41881537735424423,0.4136225357319103,0.40800319764052284,0.4027944607776264,0.3979052942269038,0.3931655220890668,0.3884109475470381,0.38300213785224974,0.3777640236134485,0.37272591478605865,0.36787906338957427,0.3631993593621659,0.35814730954473323,0.35346801061072824,0.3490779226487309,0.34482151361545327,0.340549015034992,0.3356945047611528,0.3309900287383809,0.3264623200215145,0.3221050375638926,0.3178986707078182,0.31337064878062876,0.3091804656096972,0.3052516337447475,0.3014425914863822,0.29761725569818187,0.2932766238474327,0.28906701666594387,0.2850121578330861,0.2811071298439207,0.2773358406885456,0.27328546571863216,0.26953752267379444,0.2660225740659756,0.26261290729345577,0.25918619402335863,0.2553053353840795,0.2515393935011128,0.24790981238754137,0.24441316489168616,0.24103654735817168,0.23742188794354985,0.23407968314999827,0.23094679346438152,0.22790778841564174,0.22485227316042136,0.22139812145205667,0.21804361273655273,0.2148070981238648,0.21168551480640738,0.20866799896267108,0.20544437832083112,0.20246163688799565,0.19966307697655525,0.19694563389281186,0.1942112142916378,0.19112811810298702,0.18813251635617917,0.18524098976698516,0.18245132203396536,0.1797544296206045,0.17688235967519886,0.1742241616124539,0.17172786778730423,0.16930056901229262,0.1668546010303813,0.16410325755996347,0.1614277698415619,0.15884477840453906,0.156355282836416,0.15395477244015807,0.1514159851325745,0.14907864043574265,0.14689642125368435,0.14478508567397863,0.14266347138337374,0.14027942121939738,0.13795709988656402,0.13570344918177396,0.13351187010087273,0.13137217032658938,0.12908577435189106,0.12694496024563443,0.12491025362989451,0.12291277911812955,0.12089040017338192,0.11863935203559513,0.11645322246886564,0.11435082528349935,0.11233676026842841,0.11040863002017444,0.10839914642656381,0.10655593518696131,0.1048353414088976,0.10316513113291942,0.10147844425653504,0.09959106525400993,0.09774702795362074,0.09595743798249526,0.09422467043825733,0.09254825849289564,0.09079090120585993,0.08916887811931963,0.0876476369414712,0.08616693340363978,0.0846705258448099,0.08300420058104001,0.08137713982936948,0.07979881116827964,0.07827091627625164,0.07679279319672415,0.07524963229163187,0.07382484279439187,0.07248715246876877,0.0711830726254541,0.06986318128744305,0.06839847271622729,0.06696709930159835,0.06557788492859741,0.0642332093808394,0.06293356937816195,0.06158497362128415,0.06034239104739236,0.0591776982283888,0.05804312029108945,0.05689447535189834,0.055623532769480656,0.05437963090474555,0.05316944570846413,0.05199453816116079,0.05085538132563471,0.04967552882992595,0.04858537597982032,0.04756046979378838,0.046559517756325386,0.045544727155855676,0.04442798531910561,0.04333452913511627,0.04227032326129441,0.04123675461807149,0.04023407298607664,0.03920073640073033,0.03824338673080015,0.03733975913879809,0.036453653148168855,0.035552789475061214,0.03456708391316263,0.033601294891251805,0.032661974243436816,0.03175166452243106,0.03087150596404579,0.029973195297319236,0.02914308227419027,0.028360049654986206,0.027591043105483486,0.02680709179304551,0.02595227232546724,0.025112845116844494,0.02429566265878231,0.023504681001724446,0.022742677622045227,0.021973851671845946,0.021267790916259317,0.02060506733080799,0.019955527013527284,0.01929259865197527,0.018571511364270724,0.017860966637752725,0.01716666938030644,0.016492671347215812,0.015842519681905313,0.01519109253986933,0.01459392059038261,0.014034099511212901,0.01348529545374931,0.012924260522062447,0.012316687245353447,0.011716580880776723,0.01112880076730815,0.010557319007589366,0.010006001362219583,0.009458424960927652,0.008957761250526455,0.008489272689058346,0.008030074452884572,0.0075599655491523495,0.007053591715865856,0.006552132795466076,0.006059409117962143,0.005578830894388271,0.005113929736085116,0.004655069998479315,0.004234351197910582,0.003838954737258153,0.0034494460405593104,0.003049071298540767,0.002621160273759353,0.0021968351289902046,0.0017800696044262365,0.00137462136015916,0.0009842128609964184,0.0006051285358089718,0.00025946521739501763,-6.453444385367594e-05,-0.00038410758028156365,-0.0007139028513757195,-0.0010640435096493667,-0.0014127685807400273,-0.0017563435074317516,-0.0020907808191913085
0.9232732035095397,1.0095963052888353,1.0299849424171028,0.9968057539651154,0.9321975250441046,0.8611396456577334,0.8042334197740364,0.7731357857706082,0.7684524570038639,0.7815809766460345,0.7990060878059272,0.8073549935382014,0.7981453433242304,0.7696666626788575,0.7266751146927264,0.6779151858765223,0.6325525935210198,0.5974044724364908,0.5748841471010918,0.5630084514663831,0.5568242839471175,0.5505058337358684,0.5397291660553271,0.5227207895030764,0.5004474534638501,0.4757616078317723,0.4519471393925942,0.43166399180165044,0.41596283498769077,0.40423248920307825,0.39469893171642706,0.3851626783304839,0.3739893299617882,0.3604236267692705,0.3447006823339335,0.3277778439907834,0.3108320435356324,0.2950654134812424,0.28128896434330497,0.26988385366140444,0.2608567562651397,0.2538841343298639,0.24862760281456298,0.24464233913319436,0.24144476303812423,0.23853378110441667,0.235353130541821,0.23160017221987522,0.2271086838342378,0.22191442614714507,0.21621080594369366,0.20968729793649912,0.20352119956880385,0.19771407841060246,0.1920641100374222,0.18632911138609326,0.17981768652512214,0.1734827464698266,0.16742605278814313,0.16173078833461085,0.1564474168284928,0.1510258796078236,0.1462464900412744,0.1418759596397223,0.13758194895911421,0.13309207506332182,0.1278229338059724,0.12265343093840607,0.1178027581875079,0.11346173875126124,0.10973673329815084,0.10617037433062142,0.10326484025472803,0.10074557986520476,0.0982696442353269,0.09557131424477411,0.0921852942270332,0.08881045703663057,0.08571852870865533,0.08318479225083117,0.08140589519139738,0.0801044966876443,0.07964245845597938,0.07974984832020543,0.08005779745145968,0.08023580554248633,0.07965906012017161,0.0789240794311986,0.0783418846651874,0.07828867549658582,0.0790657158935753,0.08020873047149435,0.08221689265758192,0.08492441562881253,0.08804720752829942,0.0912698254816434,0.09405030096349361,0.09659352080412097,0.09891390827709817,0.10113694488905087,0.10347393506971149,0.10618645065756906,0.10956844750084786,0.11361841402493593,0.11817157575278775,0.12295895307718904,0.1276169196224528,0.13204825397139064,0.13605127839140327,0.1395160043569921,0.1424439710846666,0.14478250859323707,0.14691571629685432,0.1490410611953263,0.1513086662114717,0.15378910723550288,0.15623268898246295,0.15878332179806257,0.16128942962026635,0.16351362321340634,0.1651342433863391,0.1654674047783202,0.16441477597097115,0.1617245933237753,0.15731704461401738,0.15139553647436899,0.14419708833707917,0.13721745839138216,0.13226545168653542,0.13160262098189868,0.13765682956239877,0.15216243251613695,0.17702865377171131,0.21274102294362282,0.2582437008127875,0.3106928322788947,0.36493820018941314,0.41555153745844,0.4561390483560103,0.48054048323086873,0.48372883499539066,0.4619946478214293,0.41556259008880875,0.34728845341383197,0.2628587191540923,0.1700712898035298,0.0770080821947434,-0.007044141334466721,-0.0746360439906837,-0.12077058718495266,-0.14358625538833103,-0.14527863059769006,-0.1291796974206737,-0.10076335434851048,-0.06599242740047068,-0.03025306900790907,0.001675344475419774,0.02837100676228302,0.04980743296100734,0.06736812711285439,0.0830801173725129,0.09809220276512368,0.11434953430441153,0.1324623122137623,0.1522241194212996,0.17284340811826107,0.19321760441378938,0.21260268556280001,0.2305025329835828,0.24697064906814695,0.2626066988640092,0.27829579206009153,0.2952263901092895,0.31410451161617925,0.33502232717897484,0.3573548718690625,0.37982108299967515,0.4011648247424215,0.42029946538312823,0.4369783658889275,0.45210304487411584,0.467553258926157,0.4859028129820626,0.5091802110005296,0.5380897719318071,0.5714436844471092,0.6060621370494105,0.6381741178398073,0.6639512478238521,0.6812746877220391,0.6907843240201027,0.6957429563916604,0.7019822776747864,0.7147604822435388,0.7371044932220896,0.7682848468715127,0.8034382929480055,0.8351395912014139,0.8554596150033862,0.8591038532621558,0.8457853697229226,0.8210548401835007,0.7946479382806674,0.7775985911789856,0.777920946163873,0.7969280396126989,0.8274770818440547,0.8549020598243195,0.8607969208603637,0.8284023892232384,0.748070709502475,0.6209570247621679,0.4598870380820821,0.2864557678447581,0.12576236391469722,0.0,0.0,0.0,0.0,0.0,0.0,0.0,0.0,0.0,0.0,0.0,0.0,0.0,0.0,0.0,0.0,0.0,0.0,0.0,0.0,0.0,0.0,0.0,0.0,0.0,0.0,0.0,0.0,0.0,0.0,0.0,0.0,0.0,0.0,0.0,0.0,0.0,0.0,0.0,0.0,0.0,0.0,0.0,0.0,0.0,0.0,0.0,0.0,0.0,0.0,0.0,0.0,0.0,0.0,0.0,0.0,0.0,0.0,0.0,0.0,0.0,0.0,0.0,0.0,0.0,0.0,0.0,0.0,0.0,0.0,0.0,0.0,0.0,0.0,0.0,0.0,0.0,0.0,0.0,0.0,0.0,0.0,0.0,0.0,0.0
0.8457853697229226,0.9260713550160379,0.9463113647948236,0.9176789681139393,0.8602964682024999,0.7969280396126989,0.7462478051031108,0.7191021981004597,0.7162253620427359,0.7299511605540832,0.748070709502475,0.7582511109568179,0.7527967668599267,0.730050692627028,0.6942277147499554,0.6531803800123491,0.6150096456484861,0.5860209471576888,0.568489777387076,0.5607203610033864,0.5582900505222231,0.5557440795213479,0.5492328921494016,0.5370969852689823,0.5201504985227976,0.5009256865500497,0.4822349113547963,0.46666461057559877,0.4553723687813467,0.44809833280744715,0.44356132257787617,0.4399318977493487,0.43600514767012494,0.43115047240328763,0.42542964005758815,0.41933793743060344,0.41329419722760813,0.4078099904049387,0.40303099893107436,0.3988651215807733,0.39511455228333064,0.3914897539343536,0.3880352929346232,0.38483477686396517,0.3819813435080185,0.3794687539971273,0.37703256566377535,0.3744769035105143,0.37153105364621414,0.3680005730313636,0.363822955710924,0.35854690507800757,0.35320122424419964,0.347854096646183,0.3424602539967829,0.33694916084866117,0.3308176587619411,0.324976877091615,0.31951657529248917,0.3145138083122116,0.3100753659863983,0.3058811045066375,0.30283006445553984,0.3008817658049866,0.2997927733199597,0.299183989126821,0.29819447597680665,0.2970690782867695,0.2953311733715194,0.29251836557852795,0.2882926122672437,0.28213796537184843,0.2747547899637871,0.26638612013627333,0.2573606676182607,0.24806923698929217,0.23858287310906834,0.2297756458167587,0.2217976344131944,0.2145703553895402,0.20784586171134065,0.20101287081125244,0.1942131746625923,0.18716274114023218,0.17968358057068862,0.1717810178070843,0.16328444499741615,0.15508938082713972,0.1476049248340233,0.141118412971455,0.13571617390282795,0.13077958848496085,0.1265824855207585,0.12275462155291017,0.11892298896616446,0.11483835295192851,0.11029322306770879,0.10574674740633709,0.10138293253269741,0.09739425201494677,0.09396053200102909,0.09138771567096964,0.08976189171655864,0.08879203198596962,0.08804562900171257,0.08711536773122028,0.08580162439505716,0.08427200443935233,0.08265153490927332,0.08120082492573477,0.08027020346141145,0.08010853048972794,0.08121975718543567,0.08359524487122211,0.08696560898002194,0.09087153915965691,0.09455887612556593,0.0978437610867533,0.10028923857624945,0.10156645782097153,0.10147287485790236,0.09959553755934922,0.09633065519476461,0.09173638287350236,0.08591079657330136,0.07906477887155386,0.0712354926770025,0.06365965092685218,0.057594846906433766,0.054656342254674,0.05665668288520533,0.06485732434875889,0.08107973074772955,0.10594919905007498,0.13889724220043112,0.17787272993976364,0.2186824501561081,0.2569151502178206,0.28687438690331757,0.30267787901985765,0.29908877699432196,0.2717457696182928,0.2200030454844707,0.14578867246633148,0.05413441110920089,-0.0473039174204944,-0.1499399704225915,-0.24343599410108757,-0.3189445802789291,-0.370032146581889,-0.39369661183531074,-0.39151352443414916,-0.3670010462009336,-0.32647706316099967,-0.2772503182271267,-0.22625772988899903,-0.1796424096766749,-0.1399447390688772,-0.10770727374688406,-0.0815038878218512,-0.058818847942687366,-0.037682323799330106,-0.01550382553095298,0.008882401651186683,0.03552904809646816,0.06358343816550721,0.09165996768392409,0.11851017131799631,0.14321537101436685,0.16554044819691557,0.18598572427370172,0.20555741204713707,0.22561201825707963,0.24716128484002942,0.2705991193524315,0.29552853832476,0.3208211580203953,0.34515166412686904,0.3673549455338638,0.38706681609742993,0.40507135237581815,0.4232097328069248,0.4439633122420191,0.46943300286072465,0.5004636312442473,0.5360252235641668,0.573115905621786,0.6078356074475906,0.636218013473434,0.6558561680936461,0.6669790947525155,0.6724979743787523,0.6777186624188182,0.6878139950184227,0.7060731650948918,0.7323594095368374,0.7627296168195968,0.7903809159572707,0.8080386135680887,0.810672546832355,0.7977397243211592,0.7741751380133205,0.7484510499552431,0.7306666649779463,0.7283323809806252,0.7429200166413666,0.7682659549546356,0.7909594180613699,0.7942833472686611,0.7629482432899604,0.6881003089615739,0.5707970790735388,0.422570625898513,0.2631490398028009,0.11551214270830075,0.0,0.0,0.0,0.0,0.0,0.0,0.0,0.0,0.0,0.0,0.0,0.0,0.0,0.0,0.0,0.0,0.0,0.0,0.0,0.0,0.0,0.0,0.0,0.0,0.0,0.0,0.0,0.0,0.0,0.0,0.0,0.0,0.0,0.0,0.0,0.0,0.0,0.0,0.0,0.0,0.0,0.0,0.0,0.0,0.0,0.0,0.0,0.0,0.0,0.0,0.0,0.0,0.0,0.0,0.0,0.0,0.0,0.0,0.0,0.0,0.0,0.0,0.0,0.0,0.0,0.0,0.0,0.0,0.0,0.0,0.0,0.0,0.0,0.0,0.0,0.0,0.0,0.0,0.0,0.0,0.0,0.0,0.0,0.0,0.0
0.7977397243211592,0.8725197123964078,0.8901721577729491,0.861290604611728,0.8049878059670116,0.7429200166413666,0.6927787724052435,0.6650543357630924,0.660573036687325,0.672129804973749,0.6881003089615739,0.6964799524737292,0.6898495249935828,0.6664606010562456,0.6302270752207474,0.5886527855342281,0.5494896669339006,0.5191642972808554,0.5002749184332822,0.4916084498750337,0.4892052621068821,0.4877618488909683,0.483515095091196,0.4745640099337824,0.461307621804186,0.44582685393085153,0.43044073201679983,0.41771754789960996,0.40895616630557496,0.4041918145135883,0.40244844575482097,0.4019032031045941,0.4014848548666107,0.4004425898134401,0.3986207146286221,0.39629389743116605,0.39356510331203054,0.39116235927715487,0.38955905516425143,0.3891288664496258,0.39013934910751114,0.3924117353277674,0.3962587285161673,0.4016778585508601,0.40844669108376885,0.4160677324978578,0.42349507285668037,0.43019033111682653,0.43561005109622886,0.4395138563671013,0.44199611588820437,0.442712559766189,0.44317544100647793,0.44386688652527234,0.4450406924581437,0.4467065088174025,0.4479964014859507,0.44951471814921734,0.4508653737732753,0.4516136524489654,0.45141690174660054,0.44948558402390654,0.44674510633309533,0.44341775500360375,0.43976424987872775,0.43604790687088335,0.43191741410875967,0.4283099965047263,0.4252990760516757,0.422809134276936,0.42067891199516616,0.4182043613997133,0.4159366379633554,0.4138308324785613,0.41185196487065995,0.409971633141406,0.4077058180699816,0.4055966309294476,0.40357195434641757,0.4015038240816958,0.39926435428764573,0.3964085264684869,0.39345045644088456,0.39046032742054,0.38750800243373773,0.3846472693938514,0.38150681969671524,0.37858419740857824,0.375804758711514,0.3730142605636684,0.370030184500057,0.3662838482905022,0.36222972908698453,0.35788718592316304,0.35332135541160636,0.34864132891905164,0.34388463968532934,0.3394470466071691,0.33527107482573204,0.3312316843928736,0.3272524733380462,0.32360732724294056,0.320471178183229,0.3177386944841354,0.31519542317456256,0.3125992166641981,0.30984507425681485,0.3070378960783436,0.30407179541957896,0.3009658765678449,0.29794595999035,0.2953613792205275,0.29402213334317917,0.2942043532620087,0.2958605945494379,0.2985857055212376,0.30147255257897926,0.30397434035721926,0.3050287013101655,0.3036650150201423,0.2992254510521252,0.2912050037857136,0.2803220891280163,0.2671637537095816,0.2524879016819335,0.23710476432231037,0.22141402411893815,0.20666618650346283,0.1935531281716609,0.18274960911619087,0.17498407759249548,0.1705823902787403,0.17089481426953088,0.17647335459188193,0.18728102953699727,0.20237451762614508,0.21908581415409367,0.2347580244704204,0.2450773896725008,0.24506163514991275,0.2297649576597948,0.1945073004156187,0.13794179215034946,0.060796784487658545,-0.03314442497307877,-0.13721824511209685,-0.2433776558348141,-0.3411472962681405,-0.42131741390063887,-0.4768720624907011,-0.5042014478839884,-0.5044672135888956,-0.4808891207910212,-0.4400384219779732,-0.38975779847315417,-0.3376039472772606,-0.2902524617930175,-0.2503541245905932,-0.2184757342339927,-0.19298566388466531,-0.1710064466705329,-0.15019359490973605,-0.12751771105809853,-0.10176530844595819,-0.07307158715112196,-0.04263219296359112,-0.012328303217433957,0.016450827250845113,0.04252069325682379,0.06547548221574126,0.08574206074335071,0.10422806481271138,0.12253377198101927,0.14173754533003188,0.16233324238595456,0.18409933471691384,0.20609222851182998,0.22745921514715461,0.24730669916812745,0.2654007013945656,0.282456608690477,0.29998253325545754,0.32016205259671465,0.3446569271443762,0.374008074758984,0.4071619744303201,0.44141820322252845,0.4734884772930397,0.500094169859747,0.5193935552266772,0.5318673401701632,0.5403125112642068,0.5494720874265755,0.5638684574217775,0.5862257600973869,0.6161275144518266,0.6497635955728288,0.6806177631345567,0.7018637310729501,0.7087063060858364,0.70038768873349,0.6811744470213078,0.6583706190860349,0.641066374710307,0.6362680304055255,0.6458096511452904,0.6649418924474175,0.6823086935435673,0.6836805220325084,0.6559015972468799,0.5912316135570908,0.4904522934633919,0.36317353122415247,0.2262319718256589,0.09933991869141195,0.0,0.0,0.0,0.0,0.0,0.0,0.0,0.0,0.0,0.0,0.0,0.0,0.0,0.0,0.0,0.0,0.0,0.0,0.0,0.0,0.0,0.0,0.0,0.0,0.0,0.0,0.0,0.0,0.0,0.0,0.0,0.0,0.0,0.0,0.0,0.0,0.0,0.0,0.0,0.0,0.0,0.0,0.0,0.0,0.0,0.0,0.0,0.0,0.0,0.0,0.0,0.0,0.0,0.0,0.0,0.0,0.0,0.0,0.0,0.0,0.0,0.0,0.0,0.0,0.0,0.0,0.0,0.0,0.0,0.0,0.0,0.0,0.0,0.0,0.0,0.0,0.0,0.0,0.0,0.0,0.0,0.0,0.0,0.0,0.0
0.70038768873349,0.7650333097373895,0.779255063675077,0.7524887936663941,0.7016413368315602,0.6458096511452904,0.600719758690973,0.5753801467346698,0.5703342879172273,0.5790625211265882,0.5912316135570908,0.5964710381674497,0.588235620183679,0.565117304615513,0.5306961498789575,0.4916759637666891,0.45507188629921924,0.4263427385093892,0.407560817936827,0.3973935037081198,0.39212031397628755,0.38708597143368206,0.3788560206379499,0.3658326768979792,0.34854498249773164,0.3290733031582944,0.30985340232697467,0.29327820927681597,0.2805924516597327,0.2718229216116528,0.26602629234030134,0.26157575926350546,0.2573299406849266,0.25251214850130627,0.24692878456872933,0.24083506145621908,0.2344741168834925,0.22847767816073147,0.22323557302819494,0.2189518770892526,0.2156438305721368,0.21296276310898032,0.21086665425546064,0.20917466295626813,0.20769683447851356,0.20624157765736675,0.20441126348714017,0.2023347086373121,0.20017635411450627,0.19823374666335883,0.19683932474259674,0.1956230617269429,0.19553756162448582,0.19643987555949988,0.19795363149739537,0.19962283841772727,0.20046077450015107,0.20110823076559775,0.20157621469849718,0.20196410974736825,0.20240635209285784,0.20241058751080251,0.20279732952010782,0.20351245499887044,0.20438102649874618,0.20520609551661528,0.20528312091358553,0.20537079193494662,0.2056856784642006,0.2064870420315055,0.20800583894037275,0.20980282035399758,0.2125547696620304,0.2162074982930725,0.22055834235187805,0.2253010286088699,0.22957047132054345,0.2336209268185234,0.2372480426167338,0.24028483918874033,0.24259621827736705,0.24362680754209182,0.24383378388042184,0.24332024128524016,0.24226044867402716,0.24089688383623928,0.23911743604848448,0.23771110460972955,0.23707063179795895,0.23750810817242896,0.2391975493951115,0.2417766544158806,0.24549450708511844,0.2501220005106261,0.25533520147708344,0.2607731513037351,0.26547564825800324,0.26985510639340354,0.2740097637188639,0.2781255220538873,0.28234875321235864,0.285788462660218,0.2891620308949204,0.2925383629905047,0.2959573509742219,0.2994186722076498,0.3023410252558311,0.30526368905196116,0.3083849681333854,0.31200198079726754,0.31648859120294087,0.3220407161721313,0.3292489196590378,0.33826590271716644,0.34895624680081727,0.360851631989736,0.37296323350527205,0.38453197877344936,0.39442979114033433,0.4015906076026541,0.4052146727765311,0.40473297700822913,0.4005783495639528,0.39342168222284035,0.3843074037500355,0.3744707928092387,0.36488575580327587,0.3567965330654356,0.3507080518920393,0.34655781729146123,0.3437269128419462,0.3409070890116117,0.3371469140994321,0.33123830164770257,0.322354675949501,0.3104084090072358,0.29605961909943707,0.2818355760011899,0.2710919596637379,0.26802289295426174,0.2770899051725253,0.3018985945331361,0.345377372911556,0.4078585476365639,0.48683255441311013,0.5767944752270304,0.6692112254087144,0.7547574949797482,0.8233475034893308,0.8660455676810717,0.8764990452815354,0.8515230237529453,0.7931769727486849,0.707080825864694,0.6020173502919011,0.48856674502837955,0.37695674124115347,0.2771717512480398,0.1960886227678181,0.13722666086434823,0.10063444477522365,0.08281235853791324,0.07946155624354119,0.0849504737493142,0.09397809953714747,0.10246125728209234,0.10782150649104229,0.10972388403827774,0.10880083757045947,0.10645395297782333,0.10428806978896099,0.10341494037567768,0.10493351978791725,0.10877312074013468,0.11419959132972908,0.12012368437430455,0.12528044767948535,0.12931197529282226,0.13203764780691954,0.13391133476278813,0.13595929895964806,0.13933930723740134,0.14560416815680932,0.15536236301118767,0.16829432052339074,0.18312971968242459,0.19778829317481866,0.21057735530707533,0.22010739775190946,0.22622203363127336,0.23030014040520114,0.23487225483679913,0.24337405455886735,0.2582915124679148,0.28033844263865365,0.30785725358388144,0.33669841457263805,0.3623795545954298,0.38021841789517474,0.3876354619069019,0.3854143667625618,0.3774207397656103,0.3711955366307088,0.3734885306744898,0.38854228339920743,0.416078390103409,0.45026121627422977,0.48153139760099,0.4977776606161678,0.4882088301151085,0.4467424134442563,0.37420480078034823,0.2788726184428957,0.1744567648122389,0.07682412419615417,0.0,0.0,0.0,0.0,0.0,0.0,0.0,0.0,0.0,0.0,0.0,0.0,0.0,0.0,0.0,0.0,0.0,0.0,0.0,0.0,0.0,0.0,0.0,0.0,0.0,0.0,0.0,0.0,0.0,0.0,0.0,0.0,0.0,0.0,0.0,0.0,0.0,0.0,0.0,0.0,0.0,0.0,0.0,0.0,0.0,0.0,0.0,0.0,0.0,0.0,0.0,0.0,0.0,0.0,0.0,0.0,0.0,0.0,0.0,0.0,0.0,0.0,0.0,0.0,0.0,0.0,0.0,0.0,0.0,0.0,0.0,0.0,0.0,0.0,0.0,0.0,0.0,0.0,0.0,0.0,0.0,0.0,0.0,0.0,0.0
0.8764990452815354,0.9258160024757834,0.8941112184370551,0.7935902430330966,0.6485463104222353,0.4885667450283796,0.34071698734183614,0.2246616467826627,0.1487977325060729,0.11078557781949305,0.10063444477522364,0.10483071178172637,0.11191377926318528,0.11455869260537906,0.11069282405757343,0.10246125728209235,0.09370273091323311,0.0885839480802756,0.08919783627831314,0.09519429091110368,0.10428806978896098,0.11316066843111487,0.119501909254879,0.12225534842397469,0.12192660382614855,0.12012368437430457,0.11858971221606408,0.1190162982375458,0.1221910033694911,0.12805442141642326,0.13595929895964806,0.14495085025643065,0.1544159012289646,0.16398785544211464,0.17355977252164292,0.18312971968242459,0.19260224521654376,0.20195215135055794,0.21117522750393244,0.22046518743313673,0.23030014040520114,0.241374553764289,0.2544539500371676,0.27003461418903185,0.28807505867539307,0.30785725358388144,0.32805077130867494,0.3470609310434813,0.363422560859272,0.37623151476062233,0.3854143667625618,0.39128541110560194,0.39608083272421485,0.4012339557158499,0.4077823985372846,0.416078390103409,0.4253834096233466,0.4349407826878388,0.44293322795467627,0.4473956390455747,0.4467424134442563,0.4401282058365056,0.4279167838098274,0.41131337327194284,0.3921576933000458,0.37245813822247337,0.3538171621621216,0.3373405895249647,0.3231326168399513,0.31048595987221117,0.29817386300069043,0.284763083041119,0.2693449568827911,0.25146789569189126,0.23137529991013428,0.2099304641612162,0.18827615463454692,0.16786109454442455,0.1497151384895848,0.13435216141450101,0.12168706532174191,0.1109990390947318,0.10151473624856124,0.09224273017482137,0.08240255879235502,0.0716411944600977,0.059983457900298055,0.0482714818150126,0.037404842886354615,0.02828924832221064,0.021595323598453505,0.01740926245282391,0.01577591568732062,0.01604934688901089,0.017324714045025724,0.018693457569700884,0.019255531109919483,0.019054986115831778,0.018163441429561906,0.01692111126304781,0.015791591540948263,0.014917299065027798,0.014950189234615678,0.015828047670381862,0.01722982155865356,0.01872726414567977,0.01963810123144749,0.020271447748119825,0.020669849425895895,0.021035123454106547,0.02166293675041128,0.022477885868139966,0.024194609046199713,0.026804665956447007,0.030081924027217478,0.033671975800700464,0.03682584398447313,0.03974446005295249,0.04225151103617582,0.044244520513090586,0.04568101485098965,0.04616861903022437,0.046200235314294645,0.045863377099304735,0.04525346751405647,0.04449204576344162,0.04342680162682879,0.04260033092760225,0.042228417030719306,0.04245297995767808,0.0433030766758936,0.04445535866545528,0.04597170491861923,0.04766901268249382,0.049379256681832094,0.05099659230251279,0.05228461826511038,0.0535296283716482,0.05491374186801773,0.05660684594379565,0.05869010792913199,0.060904623964374,0.06326256525869932,0.06560547560316,0.06779078635342249,0.06974547424834793,0.0713070619585611,0.07282208026202286,0.0746481821690705,0.07719317574222731,0.08080084056756386,0.08545465214483403,0.09127920605634009,0.09808262813245458,0.10550825984960806,0.11311055469290611,0.12023774605719374,0.12682402707101223,0.1329428119954706,0.1389529975710355,0.14542026881824835,0.15271278858231824,0.16161097047270068,0.1725144346003478,0.1854432026581364,0.19993531098656847,0.2150242646044405,0.22941689375944263,0.2416253112999084,0.25028633663850247,0.25445035315488856,0.2537681364063533,0.24865182362179047,0.24006553080950038,0.2293448737201858,0.2179102285383662,0.2069782906371541,0.1974830196353293,0.18993063683661135,0.18453512573325584,0.18137010392184388,0.18046618086854438,0.18191610252113802,0.18566785874967312,0.19140853920110965,0.19844044173589193,0.2056582752877562,0.21183359801390259,0.21582074014284214,0.2169911413357044,0.21551077954993997,0.2123314468828199,0.20901347223537273,0.20703423356007683,0.2072478762724757,0.20947755110007527,0.21245934409327488,0.21442175024982343,0.21370158247515192,0.20969057475305317,0.20344432265021056,0.19766433042740594,0.1961705365151728,0.20242914220610606,0.21817271535932625,0.24226036838273404,0.2702546304966152,0.29530405500174617,0.3094558608339248,0.3059098976967238,0.2810764141152575,0.23580563275450253,0.17577291289568467,0.10990592177276953,0.04835733558410188,0.0,0.0,0.0,0.0,0.0,0.0,0.0,0.0,0.0,0.0,0.0,0.0,0.0,0.0,0.0,0.0,0.0,0.0,0.0,0.0,0.0,0.0,0.0,0.0,0.0,0.0,0.0,0.0,0.0,0.0,0.0,0.0,0.0,0.0,0.0,0.0,0.0,0.0,0.0,0.0,0.0,0.0,0.0,0.0,0.0,0.0,0.0,0.0,0.0,0.0,0.0,0.0,0.0,0.0,0.0,0.0,0.0,0.0,0.0,0.0,0.0,0.0,0.0,0.0,0.0,0.0,0.0,0.0,0.0,0.0,0.0,0.0,0.0,0.0,0.0,0.0,0.0,0.0,0.0,0.0,0.0,0.0,0.0,0.0,0.0
0.5382796741194399,0.5823469689472011,0.5848253054540372,0.5532082660175366,0.5011211657257881,0.44417624631887775,0.3956131633281865,0.36335060325796126,0.34860810269128856,0.3468180773789361,0.3500728185183156,0.35012228719727284,0.3412781056769425,0.3217188878655225,0.29352392492025897,0.2613969433544815,0.23064624791333133,0.205607221211715,0.18827076819732702,0.17811101709382013,0.17272106819064736,0.16884630591298894,0.1638525248371678,0.15628905908120866,0.14615719534176372,0.13457877350412006,0.12303821002833579,0.11303242702880575,0.10536061831826327,0.10003699460737911,0.09643647881759279,0.09350296671400991,0.09044833291302182,0.08674197394920376,0.08226041802451516,0.07722156407937754,0.07191690171032136,0.06692472692015841,0.06272164701681084,0.0596768919608456,0.058006649341162286,0.05762015305345483,0.05849174147428806,0.060380512216680234,0.06292733936486196,0.06570585825592046,0.0681411320571785,0.0700769469032482,0.0714746081387725,0.0724929645861624,0.07340506717067864,0.07400645612519725,0.07514304613051989,0.07682260736277953,0.07885857374575053,0.08098025756215499,0.0824850980316573,0.08388968715863235,0.08526882791187085,0.08676969295201792,0.08855544795363135,0.09027730932391034,0.0925247715345189,0.09527756188355865,0.09840362819673314,0.10170881276691596,0.10457674996333285,0.10733403944342507,0.10996147099771705,0.11246906192765348,0.11486217758020056,0.11674615870333327,0.11847058604967814,0.12007268876261752,0.12160089231117377,0.12311578090728022,0.12427395567134403,0.12555674931295488,0.1271288255038697,0.12908215857266248,0.13136938423435987,0.13333230943045857,0.13508660917644782,0.13646583038799284,0.13739940337525453,0.1379503363934574,0.13821228065067978,0.1386205633601808,0.13955949825118633,0.14141645241003645,0.144531288552555,0.14937886717376317,0.15584789393862641,0.1636597776761113,0.1723176814766014,0.18121914931693264,0.18987120669545662,0.19786813242340198,0.2050560317038489,0.2115897405709596,0.21790701008131028,0.2245148248724669,0.23214596580483302,0.24122808888318872,0.25182511648767814,0.26356316289452214,0.2754607464263058,0.2867565042129081,0.29653738665467155,0.30412543873542386,0.309219315707734,0.3115984202502387,0.3120450919336895,0.31130954549606626,0.31012470203905057,0.3090123213491791,0.30779675828167596,0.3069012051117083,0.3064749039680208,0.3068773869276018,0.30880532699062424,0.3128086868126425,0.32057490325371174,0.3333318730791027,0.35167630982722875,0.3750318997068987,0.40068536981668984,0.42538475053626507,0.44415759363145363,0.4513002146755634,0.44125847242317306,0.40903003107327773,0.35314722913773017,0.27479768239605296,0.17850754442917258,0.07175877450223665,-0.036653471513387645,-0.13595444859651942,-0.2166940837257341,-0.27180429792812094,-0.29774092341869973,-0.2956845550144245,-0.2691061030702772,-0.2246063238210727,-0.17006022928214887,-0.11315001275718477,-0.06073976920265107,-0.016060740441806033,0.019821915510280855,0.048109838240638525,0.07144089790433017,0.09229111748064997,0.113862705541003,0.13784150924061098,0.1646118563052159,0.19338380376489112,0.22210782375186355,0.24960927201666525,0.27460377553872034,0.2964695840836888,0.3153267096254521,0.3314670511887673,0.3464077494036709,0.3611669532023432,0.37641147900365635,0.3923255431596776,0.4084886343395464,0.4246729509062904,0.4403223947792534,0.4551434272668253,0.4693243766939031,0.48340204393044456,0.4986733336208756,0.5160278427484662,0.5358442415829618,0.5577237081218741,0.5802576718419795,0.6020127295905005,0.6210504175088907,0.6359030153603751,0.6461230395498451,0.6522908880163883,0.6566849178789523,0.6615361893936231,0.6686539733185354,0.6787279134930576,0.6909147437963233,0.7030916066387101,0.7122751018601269,0.715615026807563,0.7113327874362702,0.69948218598095,0.6814017272215362,0.6599214620559359,0.6380869856566435,0.6180913554207714,0.6006187415877062,0.5845383192013149,0.5677812512650834,0.5482491268983667,0.5248499234052728,0.49809409659762083,0.4701756793089845,0.44400792237207076,0.4220575542371672,0.40512170737090775,0.3915059784323985,0.3775278108056329,0.35803275595729783,0.32822128696310915,0.2853934913365427,0.23001541836476413,0.16660112434621785,0.10204981776754632,0.0442411055006839,0.0,0.0,0.0,0.0,0.0,0.0,0.0,0.0,0.0,0.0,0.0,0.0,0.0,0.0,0.0,0.0,0.0,0.0,0.0,0.0,0.0,0.0,0.0,0.0,0.0,0.0,0.0,0.0,0.0,0.0,0.0,0.0,0.0,0.0,0.0,0.0,0.0,0.0,0.0,0.0,0.0,0.0,0.0,0.0,0.0,0.0,0.0,0.0,0.0,0.0,0.0,0.0,0.0,0.0,0.0,0.0,0.0,0.0,0.0,0.0,0.0,0.0,0.0,0.0,0.0,0.0,0.0,0.0,0.0,0.0,0.0,0.0,0.0,0.0,0.0,0.0,0.0,0.0,0.0,0.0,0.0,0.0,0.0,0.0,0.0
0.7113327874362702,0.7726726962501931,0.7808024924287189,0.7455676077966162,0.6846445287434215,0.6180913554207714,0.5627024161647447,0.5281388818887052,0.5153234724261131,0.5177588230377007,0.5248499234052728,0.5259215123318001,0.5138937749458762,0.48696581074372636,0.44848680874088337,0.40512170737090775,0.3641252902304874,0.3310695145134901,0.3081830161513593,0.29420760915990013,0.2853934913365427,0.2770840736768471,0.26557805910889687,0.24906829371910874,0.22794297096473368,0.20427336764414758,0.18077630803632896,0.16000272338342003,0.14346939356334848,0.1314473184516825,0.12315324395175253,0.11715130900534246,0.11207476225674513,0.10687477157567837,0.10103340796765671,0.09453072714965892,0.0876085499646514,0.08081308339574224,0.07466588452092489,0.06960260183347829,0.06590821034756532,0.0635884689136138,0.06261420160311472,0.06272281018196046,0.0635011394824568,0.06446002548118811,0.06503473956132846,0.06503880653418342,0.06449134550946974,0.06367092601714845,0.06301184061481091,0.06244205779059095,0.06303239649818115,0.06475653226409528,0.0672715585383587,0.07007686279735581,0.0722456001982367,0.07414268939266798,0.07559925619101064,0.07657344142085334,0.0771418849799007,0.07706578822114724,0.07709584900791502,0.07730635026812878,0.07765685463492214,0.07805622069796181,0.0780098848278225,0.07805326603339273,0.07823045390572428,0.07855286481360098,0.07897055641602294,0.07891125912151285,0.07872711144073381,0.07832939766879733,0.07766773619995244,0.07677284158615184,0.07570903721111406,0.07481517303510145,0.07424683355279761,0.074129523565898,0.07457512675628078,0.07601854204765524,0.07829689872198202,0.08119481477918035,0.08438598696600104,0.08753194807050467,0.09054768124608455,0.09326333468672322,0.09568596722044947,0.09798836903046892,0.10048876938472853,0.10356924497787463,0.10763322127265453,0.11286723720336489,0.11920571060656425,0.1263085270247376,0.1334762328185622,0.14017891232135624,0.14580012974536447,0.1498691967176076,0.15212828466474668,0.15228424337334584,0.15073833387493854,0.14784596024036722,0.14400589065475364,0.13959870149181117,0.13461247065447476,0.12988322788426465,0.12624545175554155,0.12484194494057332,0.12706911831887563,0.13389106092747644,0.1470907589050724,0.16762146706098555,0.19547188762122836,0.22922507463109024,0.26514554843163984,0.299140236867315,0.32555696622852603,0.33823549961113003,0.3313810309433049,0.299804966452441,0.2422601387636828,0.16032071168687426,0.05907761714598324,-0.0532976540365231,-0.16744548786771696,-0.2717404550719235,-0.35601290242311295,-0.41267442612334937,-0.43797633901635113,-0.43348331834204923,-0.4029746985028308,-0.35356693687224,-0.29365438175457975,-0.23134592785210242,-0.17401729598656998,-0.12484955219240332,-0.08474340762984607,-0.05228161857242684,-0.024715516687853722,9.270764133832102e-05,0.02522188310315612,0.05215945345359701,0.08118335724028385,0.11157259986943158,0.14132922965637504,0.1699417935426486,0.19697215871985552,0.22268021493301865,0.24786071642671684,0.2728423735310503,0.2990689403198905,0.32710738753456675,0.35692025031308267,0.38786623161572287,0.41832777628897455,0.4477898076774838,0.4757165801216061,0.5021801429779313,0.5278717468047289,0.5534090111662686,0.5804821898190646,0.6101388512746796,0.6427359739737868,0.6776981228615189,0.7134232101272855,0.7480573507652828,0.7794616087645615,0.8060872244727794,0.8275244989183088,0.8445473574865555,0.859534381036717,0.8749641972009798,0.8928745603551032,0.9140875077498726,0.9377951527109714,0.9615343326882859,0.9819479974305996,0.9957271025231151,1.0006505165814363,0.9965394766789456,0.984536352061529,0.9677194892345258,0.9496483933565601,0.933161138998846,0.9196039364198864,0.9081267688207292,0.8967554868544465,0.8831495093145164,0.8656717614162558,0.8441380922503984,0.8198605066344509,0.7951105489212271,0.7720488579809324,0.7516851069336054,0.7332683602048404,0.71474184487315,0.693450670185363,0.6676456532631244,0.637698452450955,0.6064157082839319,0.578869773566805,0.5600902441527073,0.5531554888011025,0.5573567996395749,0.567211888698635,0.5739543267106274,0.5667264873959404,0.5360676877136532,0.47701514682819474,0.39085776682517165,0.28639956970897007,0.17684677007494307,0.07709366324367808,0.0,0.0,0.0,0.0,0.0,0.0,0.0,0.0,0.0,0.0,0.0,0.0,0.0,0.0,0.0,0.0,0.0,0.0,0.0,0.0,0.0,0.0,0.0,0.0,0.0,0.0,0.0,0.0,0.0,0.0,0.0,0.0,0.0,0.0,0.0,0.0,0.0,0.0,0.0,0.0,0.0,0.0,0.0,0.0,0.0,0.0,0.0,0.0,0.0,0.0,0.0,0.0,0.0,0.0,0.0,0.0,0.0,0.0,0.0,0.0,0.0,0.0,0.0,0.0,0.0,0.0,0.0,0.0,0.0,0.0,0.0,0.0,0.0,0.0,0.0,0.0,0.0,0.0,0.0,0.0,0.0,0.0,0.0,0.0,0.0
1.0006505165814363,1.0944737368971793,1.1167712172683169,1.0808411187276317,1.0106117742830256,0.933161138998846,0.8708416359414992,0.836527649610873,0.8311487939075434,0.8456687818692926,0.8656717614162558,0.8767025363319773,0.8696129057111933,0.8424221796386445,0.8000530316531498,0.7516851069336054,0.7068616759855976,0.672767876250947,0.6518658047158743,0.6419546449158876,0.637698452450955,0.6327893217991309,0.622710652308974,0.6056717874990721,0.5828313759729514,0.5573567996395749,0.5327595814019378,0.512033857952503,0.49640522575985774,0.48532870212876167,0.47701514682819474,0.4690990225927944,0.4599856899193015,0.44892250005773143,0.43613755866460563,0.422516624147504,0.4090144282581324,0.3965696539505211,0.38563132016396945,0.376210673797949,0.3680181014668134,0.360606361827863,0.353638466493882,0.3468578372633153,0.3401031813725423,0.33327281151107446,0.3263016307172335,0.3191922149494026,0.3120394795326694,0.3050526097054049,0.2985275215553355,0.292284475416404,0.2874472154792008,0.28385032899262114,0.28102488495828415,0.27839640613617345,0.27504468619744016,0.2715298300319324,0.2676243117858733,0.26319777990196236,0.2582652907170114,0.2525910354550202,0.24714286070351127,0.24191963507649694,0.23675104487266094,0.23142863786276405,0.22551348526665968,0.21972309340465299,0.21415824550977983,0.20900849747304645,0.2045919850085167,0.20105844938253475,0.19936444694341077,0.19962555338809096,0.20160635763507453,0.20474112246353843,0.207920045323688,0.21065493821948975,0.2117805512984346,0.2101559512515518,0.2048902599185601,0.19523757706715292,0.18176439668078492,0.16502307955347642,0.14596094255220646,0.12580739234259283,0.10556083112999184,0.08693267669343714,0.07078414222003915,0.05744961541049305,0.046724524766625565,0.03758807635928803,0.029657209261195156,0.02205642697031581,0.014100408429887181,0.005474067603631011,-0.004155231616458563,-0.013752223567871388,-0.022589136281312303,-0.030034887488643417,-0.03577638955936354,-0.0404584690855149,-0.043995558651423974,-0.04700432073820064,-0.05009660907394349,-0.05366326777035858,-0.058347064300903036,-0.06315761017213925,-0.06737192211045617,-0.0702950528626506,-0.07155014598135363,-0.07195028734693618,-0.07138344202721073,-0.07053795266754108,-0.07009271756922923,-0.07045192913908167,-0.07222655906671267,-0.07416169188141764,-0.07510335800912724,-0.07381169725108812,-0.0693537122968097,-0.06205532659307448,-0.051657384911916876,-0.03894574524847778,-0.025024442428021536,-0.011006670702842381,0.001734913330703498,0.013428035215827638,0.024421033788052493,0.03544785126634598,0.047340370891124944,0.060284169714919573,0.07498034037463053,0.09129069775353671,0.10867928994493466,0.12639498319488018,0.14336150698534908,0.15948733491621392,0.1748383778420491,0.18990442702103788,0.20544959549863537,0.22200944629428482,0.24041466496582464,0.26092541632409216,0.2832855792132414,0.3067407766240104,0.33000114872294034,0.35215129687836616,0.37249957793363186,0.3909409209476153,0.40803195774938533,0.42470595603824635,0.44241028221580886,0.4623722803086725,0.48521461734450355,0.5106266735864697,0.5371208448553128,0.5627140236599089,0.5851090763903524,0.6023274684589329,0.6132213894235541,0.6176082101794881,0.6167391494672726,0.6126908768908984,0.607817429296978,0.6040552891612496,0.6023838553114438,0.6024066589790749,0.6026367457977966,0.6008796622654722,0.5948891888989454,0.5830697964089709,0.5648178507767875,0.5408549623470806,0.5129585878532259,0.48348298169770726,0.45477990119350664,0.4286682937129305,0.40616813942606944,0.387459956999749,0.37207677449646903,0.35918600072407797,0.3479771394605246,0.33772810287679234,0.32790739256007007,0.31813729393468887,0.30806781314230725,0.29761122492776404,0.28667445688283816,0.2753892703282972,0.2641978133729087,0.2537113415552404,0.24492032938663305,0.23834990168154283,0.23395508581232025,0.2309878510329628,0.22796805697478645,0.2237023329701147,0.2170924914192187,0.2080331801708498,0.19777788869301688,0.1886195246367884,0.1840500593851995,0.1866628131345472,0.19744019008543126,0.21499237219339115,0.23515931536667795,0.2526596571948493,0.261096239508959,0.25515240746515677,0.23220685569376545,0.1929853564578212,0.14275722715737385,0.08871924900219315,0.03885044854105462,0.0,0.0,0.0,0.0,0.0,0.0,0.0,0.0,0.0,0.0,0.0,0.0,0.0,0.0,0.0,0.0,0.0,0.0,0.0,0.0,0.0,0.0,0.0,0.0,0.0,0.0,0.0,0.0,0.0,0.0,0.0,0.0,0.0,0.0,0.0,0.0,0.0,0.0,0.0,0.0,0.0,0.0,0.0,0.0,0.0,0.0,0.0,0.0,0.0,0.0,0.0,0.0,0.0,0.0,0.0,0.0,0.0,0.0,0.0,0.0,0.0,0.0,0.0,0.0,0.0,0.0,0.0,0.0,0.0,0.0,0.0,0.0,0.0,0.0,0.0,0.0,0.0,0.0,0.0,0.0,0.0,0.0,0.0,0.0,0.0
0.6132213894235541,0.6736006125840525,0.6919894712379661,0.676625285081942,0.6419620236266004,0.6040552891612496,0.5756925306120105,0.5637894665774507,0.5678539550843288,0.5813967614064004,0.5948891888989454,0.5990477942054767,0.588476163370121,0.562566293661945,0.5253030132039775,0.48348298169770726,0.44399491527462814,0.4123784663516804,0.39090421804933,0.37858444015415044,0.37207677449646903,0.3668862672781485,0.3597210630267424,0.34883722970853603,0.3344275261452522,0.31813729393468887,0.301868701158413,0.2877790886496214,0.2769651080984701,0.26941758672123106,0.2641978133729087,0.2595526244362391,0.2543795974622459,0.24789224668137544,0.23995231202885428,0.2309878510329628,0.22146679580124135,0.21255200020302567,0.20519613528304645,0.2001379067614943,0.19777788869301688,0.19782867290088466,0.2001766928507172,0.2042933124884798,0.2094830362073854,0.21499237219339115,0.21981701508273882,0.22379089644858505,0.22693014176023069,0.22956959778229644,0.23220685569376545,0.23462317065066401,0.23798267240933188,0.2423396189559896,0.24743532999610937,0.2528284216413209,0.2576972707086274,0.26230765520701504,0.26644509682352047,0.2700862087035835,0.27344998758887634,0.2769207247597129,0.2813009848613311,0.28672575533663186,0.29301719121670294,0.2997618218768779,0.30633333791983336,0.312594362554847,0.3180899703217729,0.32256505024984955,0.32607365616487943,0.32879454110549716,0.33164316752969564,0.33512778689624195,0.33951886901835754,0.34474940915470964,0.35015241823568233,0.3554374793158775,0.3598324140258573,0.36263882018065474,0.36342516214453985,0.3618113384136479,0.3585046687732377,0.35408156888321224,0.34915198669029385,0.3441963541388642,0.33911541924813016,0.3344359587055396,0.3302928672955959,0.3269548401898668,0.3249675461331885,0.32477396425190075,0.3278837577042242,0.33536161075935805,0.3477375007182282,0.36452947450483025,0.38338687722245446,0.40150546916567725,0.4144264070077947,0.41697900312893715,0.404091402876472,0.3711929702795033,0.3169377095543905,0.24230606369433308,0.1513205106898539,0.050734865459666836,-0.0514449062733209,-0.145290779659843,-0.22217779617469077,-0.27568178071185173,-0.30262167195713835,-0.3041731872433455,-0.2834866266404207,-0.24668666075292217,-0.20102453219291397,-0.15348682724903487,-0.11024963375900838,-0.07391759026493211,-0.04521995481852551,-0.02286597681445332,-0.004351982540931391,0.012479436920954354,0.03052920367870766,0.051090653605247116,0.07424565383600205,0.09907001719789744,0.12353567396785019,0.14677317842779522,0.16780055956033244,0.1862754536391736,0.20249201693672628,0.21670345335914462,0.23037632398001695,0.2443016698187928,0.25888746874887897,0.27410617183267,0.2891733820281078,0.3041071340751625,0.318536116591574,0.332336252621845,0.34572032672861375,0.3588404661229445,0.3727874831491551,0.38810215605667675,0.4049566068441833,0.42303476039091287,0.44119705237691303,0.4588728887628229,0.475024116173442,0.4889087924529503,0.500349194053212,0.5094582830010301,0.5177744933970584,0.5265355244132357,0.5367300413137643,0.5487278136839472,0.5618783442187586,0.5750732183900211,0.5865317021329972,0.5943716886071098,0.5971064333146823,0.5940634201497673,0.5854201906223121,0.5725667285030558,0.5575140894313393,0.5423187099180953,0.5286028122361163,0.5168796060879702,0.5068666164188458,0.49754001659340874,0.4875309865215083,0.4755956969481234,0.4609972611071068,0.4437169770189134,0.424415744959927,0.40420004700900425,0.38423285378528443,0.36560472236101194,0.3488646329713392,0.33406574188297466,0.32086910749650027,0.30862388687894315,0.2969555794394745,0.285377484423968,0.2735569361283816,0.2613456932067881,0.24863723023841033,0.23590386858341422,0.22349455006961133,0.21191442479276656,0.2018222789170759,0.19375966599629588,0.1886408344639468,0.1866143088809096,0.18721052853007367,0.18933249558002552,0.1912283195654137,0.19170865212118068,0.1895436428449577,0.18434165222201196,0.17684271224297515,0.16858628879117787,0.16241812681380477,0.16041963020435546,0.16357564077059814,0.17122499414248946,0.18066561864304626,0.1886632653112122,0.19093464005566005,0.18385605088494736,0.16560727604200376,0.13655916717700067,0.10046120398804051,0.06219550680209797,0.027165512467372428,0.0,0.0,0.0,0.0,0.0,0.0,0.0,0.0,0.0,0.0,0.0,0.0,0.0,0.0,0.0,0.0,0.0,0.0,0.0,0.0,0.0,0.0,0.0,0.0,0.0,0.0,0.0,0.0,0.0,0.0,0.0,0.0,0.0,0.0,0.0,0.0,0.0,0.0,0.0,0.0,0.0,0.0,0.0,0.0,0.0,0.0,0.0,0.0,0.0,0.0,0.0,0.0,0.0,0.0,0.0,0.0,0.0,0.0,0.0,0.0,0.0,0.0,0.0,0.0,0.0,0.0,0.0,0.0,0.0,0.0,0.0,0.0,0.0,0.0,0.0,0.0,0.0,0.0,0.0,0.0,0.0,0.0,0.0,0.0,0.0
0.5971064333146823,0.6513569192459051,0.6621663121523811,0.6376063280804383,0.5921818167242394,0.5423187099180953,0.5016074263985397,0.4779083552026476,0.47184457823579445,0.4779710153563098,0.4875309865215083,0.491680971430476,0.4847695222352125,0.46548971195224764,0.43676901731185275,0.40420004700900425,0.37365879944699015,0.3497130903759318,0.3340639019403675,0.325522067805544,0.32086910749650027,0.316090634395314,0.3082331939534271,0.2959330319016203,0.27968139085205507,0.2613456932067881,0.24312603369909394,0.2272823917896431,0.21510640103080048,0.20683609977534956,0.2018222789170759,0.19868859284001392,0.19645537382561803,0.1943344434425914,0.19196508239802257,0.18933249558002552,0.1863943044815979,0.18350958876358023,0.18088656088492772,0.17865127896924574,0.17684271224297515,0.17525673499003686,0.1739583295333167,0.1729048651820098,0.17202797375582918,0.17122499414248946,0.17020860371824842,0.16903657919582118,0.16777235561556955,0.16656837074677994,0.16560727604200376,0.1645491092361612,0.1641266311311374,0.16421001065336877,0.16452160977853938,0.16476998585987152,0.16447978488816445,0.16415742062074917,0.16386725181253262,0.16373395659351028,0.16393269567773927,0.1645377362187937,0.16599630683408295,0.1681419623306962,0.17061777360627303,0.17301715247344576,0.17488410858609785,0.17648771863645193,0.1779549334114585,0.17964148943910113,0.18210160926915225,0.18576871386496024,0.1915402092250469,0.19966396231254713,0.20993389251813738,0.2216672223248335,0.23349576409962522,0.24450242304035655,0.2534238574943797,0.25921300700203825,0.2612328353805147,0.25899074924705723,0.25330718430823695,0.24508293669164358,0.2354311112711673,0.22544492864879037,0.21555760529139836,0.20680407510131452,0.1995398143323832,0.19385302888658557,0.18965702191706602,0.18628777945908703,0.18417534526001525,0.18346100897155038,0.18429456723315318,0.18663574850469353,0.18943233316618355,0.19224667524901606,0.19360892833363946,0.1915077029907371,0.18361447509232107,0.16702263048281912,0.14082220233781756,0.10488593837225853,0.060667585165294725,0.011205994350470398,-0.039939975479547266,-0.08713726911341184,-0.1253918370601516,-0.15077379827619408,-0.16120248639138027,-0.15763551550647306,-0.14162102230942164,-0.11672690221953239,-0.0871845268493327,-0.0570044163057783,-0.029949835454363194,-0.006847198041089585,0.012588283983960603,0.029895276153652433,0.04719365377982368,0.06575649453715722,0.08750095029100811,0.11287085717262388,0.14129548988863455,0.1714110023042909,0.20084938544419048,0.22860474431921177,0.2537175451145322,0.2759297423889011,0.29562835082875805,0.31306912626925565,0.32978127705161353,0.34666845418511455,0.36425150759877417,0.3825759770112982,0.40083319722238997,0.4189384565874574,0.4364698532423733,0.45326496201312716,0.4695236031938384,0.4854334289845193,0.5020556767880262,0.5200444423365027,0.5396827116006065,0.560704378642392,0.5820053651997548,0.6027299876104024,0.6217157595201971,0.6381522737380757,0.6518851540909456,0.663294916467431,0.6738824722971452,0.6851153927173699,0.6981612322277597,0.713421443005205,0.7301697025085077,0.7468712643323364,0.7613125752655707,0.7712348572138441,0.7749577319194646,0.7718966885982743,0.7625677515255254,0.7487208578984416,0.7327097948263274,0.7168164722918543,0.7026576548616564,0.6906928317283892,0.6803394072723604,0.6702192141665841,0.6586752126642439,0.6443090035940068,0.6265037107071698,0.6054768526061919,0.5822152467878512,0.5581406834608673,0.5345832362445652,0.5127224673605297,0.492906764153067,0.4748051539992724,0.45760615425749074,0.4401765028399999,0.42196205594004843,0.4024572243504338,0.38160396627678783,0.35979152467997705,0.3375379150760881,0.31605284299193387,0.2960484922741521,0.2779723327777702,0.2619768951024633,0.24770283994215084,0.23526328263156146,0.22410495891271803,0.21356957183591876,0.20304765326845925,0.1918162804289058,0.18022409689791719,0.16826441768753025,0.15611208345483601,0.1441184114344552,0.1324026370893158,0.12200832492180991,0.11307062919328972,0.1053667664772917,0.09837503844928641,0.09103230952448896,0.083308246315406,0.07453905500844145,0.06430682074415185,0.05263166546411764,0.03963559725184766,0.026981669671918507,0.01565641677152597,0.0064866582242817435,0.0,0.0,0.0,0.0,0.0,0.0,0.0,0.0,0.0,0.0,0.0,0.0,0.0,0.0,0.0,0.0,0.0,0.0,0.0,0.0,0.0,0.0,0.0,0.0,0.0,0.0,0.0,0.0,0.0,0.0,0.0,0.0,0.0,0.0,0.0,0.0,0.0,0.0,0.0,0.0,0.0,0.0,0.0,0.0,0.0,0.0,0.0,0.0,0.0,0.0,0.0,0.0,0.0,0.0,0.0,0.0,0.0,0.0,0.0,0.0,0.0,0.0,0.0,0.0,0.0,0.0,0.0,0.0,0.0,0.0,0.0,0.0,0.0,0.0,0.0,0.0,0.0,0.0,0.0,0.0,0.0,0.0,0.0,0.0,0.0
0.7749577319194646,0.846635757204946,0.8626919821064938,0.833571357117057,0.7779324918170584,0.7168164722918543,0.6676996347013535,0.6403176883567877,0.6351753397393937,0.6450588620209567,0.6586752126642439,0.6650300663683465,0.657044156732597,0.6333604748572433,0.5979780912991516,0.5581406834608673,0.5214499737585309,0.4931990681478,0.47496082677269197,0.46460735744833626,0.45760615425749074,0.4489879901405898,0.43503677178178957,0.41444886793949853,0.3884024116929235,0.35979152467997705,0.332046730863229,0.30784587517572015,0.2884660100428819,0.2736408879002205,0.2619768951024633,0.2516920694213456,0.24118348570940512,0.22955133353447213,0.21667875930208022,0.20304765326845925,0.18940725210817327,0.1764427257991393,0.16456659092350445,0.1538569797660944,0.1441184114344552,0.13496647026540756,0.126056364469471,0.1170897558445284,0.10788108879215114,0.09837503844928641,0.08861973092614794,0.0788461089375364,0.06936839956715772,0.06053450491266985,0.05263166546411764,0.045368962618067485,0.03942276563346664,0.03439591366275859,0.02970714785282855,0.02483057854081449,0.0191063804003984,0.013264053121439408,0.007490726374152556,0.0020156758076753413,-0.002970508382488659,-0.0077319236825843,-0.011733081568012633,-0.015312544062092833,-0.018924171472490328,-0.022920468106879494,-0.02779068133515309,-0.03266066989530944,-0.03708143699670459,-0.04059125593806123,-0.042870427831270326,-0.04434218382017079,-0.0446201359892186,-0.04416832441756356,-0.04358065234764027,-0.043360166932893955,-0.04423356649491521,-0.04541206942321769,-0.04627335348158605,-0.04600898413871511,-0.043849906034517584,-0.039825977482663796,-0.03323139173540074,-0.02424841628309177,-0.013443202670418842,-0.00165683174027378,0.009553599195808277,0.019869686535880907,0.02870461390341881,0.035670853212629215,0.04053624255397003,0.0425424712502095,0.04233391870334725,0.040340587121706975,0.037198833862532706,0.03366428696362504,0.029828785550246234,0.026900960864432884,0.025432646842841387,0.025544598890716728,0.026792331373280086,0.027531624777764586,0.027089318925226497,0.024561642421137106,0.019544773449802197,0.01235369804361677,0.003518492916812204,-0.0046825953604346954,-0.00983801411129314,-0.009570325156255742,-0.002084935286046541,0.012926868941375146,0.03545149345360602,0.0641740053659333,0.09699592191990287,0.1314287984708902,0.16471795099272912,0.19522245754835263,0.2219914682377231,0.24499167603267458,0.26494253222782693,0.2828041788372519,0.2999529392771445,0.3174586018098072,0.335907570501251,0.35529705348671903,0.37498861909710934,0.3942997370322409,0.41260098092287106,0.4296342005934768,0.44565157474561107,0.46131300287035487,0.4776119496635111,0.49546312021650063,0.5153392157542644,0.5370095312843226,0.5594378528114808,0.581158495221245,0.6005679351729764,0.6164472622243259,0.6283674878230342,0.636808734470623,0.6432066852810703,0.6493464668200142,0.656826047688541,0.6664785055359292,0.6779693198095095,0.6898690280318359,0.6998728515928875,0.705456297870212,0.7045895232488244,0.6963224693659654,0.6810983101474797,0.6605924876111973,0.6372671130120732,0.6136918977764109,0.5918453812849851,0.5726511810534963,0.5557697281298846,0.5398060793257712,0.5227942723039976,0.502804556501058,0.4785572354675435,0.44976858654231316,0.41723883064469874,0.3826420013245384,0.34803488823755324,0.31560761087579836,0.2868869393365867,0.26257461278704886,0.24248973034507926,0.2255851572532397,0.21077769329607743,0.19663994747275992,0.18202240865226782,0.16633743059526274,0.1494879364635095,0.1324906891672086,0.11632471778186464,0.1019771726688764,0.09018513084544619,0.08101906533926512,0.07469385391122604,0.07048508020379265,0.06736720739033764,0.06432212720457174,0.06033382896076733,0.0556037230383203,0.050168313211551074,0.04431686186381906,0.03845912356369729,0.03263689377397835,0.02762693542100286,0.023260714122905264,0.01911206093444911,0.014720830141513912,0.009474759887902851,0.004072984080818293,-0.0011695030539244837,-0.005739748661910629,-0.009017463280669463,-0.010794995119731728,-0.010061408203701227,-0.006954959021058908,-0.002086537274484425,0.003626623620381299,0.008861978987082094,0.01331116992269284,0.016250837165435822,0.017251227718196913,0.01627071052143206,0.013382058067780471,0.009706463897231279,0.005904617274311077,0.002537608063611783,0.0,0.0,0.0,0.0,0.0,0.0,0.0,0.0,0.0,0.0,0.0,0.0,0.0,0.0,0.0,0.0,0.0,0.0,0.0,0.0,0.0,0.0,0.0,0.0,0.0,0.0,0.0,0.0,0.0,0.0,0.0,0.0,0.0,0.0,0.0,0.0,0.0,0.0,0.0,0.0,0.0,0.0,0.0,0.0,0.0,0.0,0.0,0.0,0.0,0.0,0.0,0.0,0.0,0.0,0.0,0.0,0.0,0.0,0.0,0.0,0.0,0.0,0.0,0.0,0.0,0.0,0.0,0.0,0.0,0.0,0.0,0.0,0.0,0.0,0.0,0.0,0.0,0.0,0.0,0.0,0.0,0.0,0.0,0.0,0.0
0.7045895232488244,0.7652419650677577,0.7733155526698472,0.7386578310928438,0.678832668478269,0.6136918977764109,0.5598233550069863,0.5265442997059812,0.5144657362752705,0.5168151349395482,0.5227942723039976,0.5216791167579987,0.5063534302160269,0.4751223807590403,0.4315551503670518,0.3826420013245384,0.336098335536981,0.2978858120420614,0.27062060741336225,0.2533465150618446,0.24248973034507926,0.23347715313023532,0.22243278520307772,0.20726820857072312,0.18800588614683797,0.16633743059526274,0.14470410304151793,0.12539889189981845,0.10983481006102973,0.09831112938607277,0.09018513084544619,0.08427218556180427,0.07939725740703715,0.07467730689030008,0.06967065207138551,0.06432212720457174,0.058766157542833375,0.05326563721871187,0.04800983910362149,0.043082499360014716,0.03845912356369729,0.03398127482001038,0.029522679025022012,0.024913635918470376,0.020004930112936383,0.014720830141513912,0.009055982496332238,0.0033218085909764617,-0.0020028915830047865,-0.006311808437090722,-0.009017463280669463,-0.010171495583288722,-0.008953226230103138,-0.005731420368841923,-0.001246123926232501,0.003626623620381299,0.007661171841588392,0.011056002149926523,0.013596077980731976,0.015282077057931468,0.01627071052143206,0.01632401658193991,0.01628755118874063,0.01627019414118776,0.016254838822837632,0.016181164774546036,0.01566465509514877,0.01526704389910743,0.015129403535634248,0.015379447369603998,0.01609161902766001,0.016986612084922536,0.018311071162855422,0.019916136080339212,0.021614675332913513,0.023250109450859764,0.024532722803260788,0.02575681203622514,0.027056151337470278,0.028574845463417084,0.03040859987405952,0.03239902719155124,0.03463883998284091,0.03700445224229526,0.03935206879020447,0.04157382904847336,0.04370447384904273,0.04577848106602732,0.0478797193762741,0.05014180865974056,0.05273905822288721,0.056147273457580596,0.060256666136939314,0.0649274439997534,0.06987478025028084,0.0747583008918803,0.07946024028867299,0.08376918914410311,0.08779217550764588,0.09191793429946331,0.09677754356087341,0.10313027622565632,0.11162027042628918,0.12260188053651074,0.13594670913614046,0.1509646834119387,0.1663325304521364,0.18068421828041273,0.19259556984951196,0.2009493916627803,0.20515182326300396,0.20494957410521208,0.20121393303649032,0.1951077352242872,0.18795376892229135,0.18090666824110563,0.17430760688888242,0.16873439034857868,0.1641451736592903,0.16024375052993492,0.1566615132192073,0.15263940816407534,0.14864555808473193,0.14522169583412434,0.1430695020241352,0.1426817479816809,0.14332322545672393,0.1444863064436208,0.14435041921351202,0.14019113619410292,0.12870198274415456,0.10589339723404233,0.0699753794601979,0.02051940577523833,-0.040634957343172455,-0.10934219343754333,-0.18040511051451863,-0.24610841312968132,-0.2992705308499538,-0.33410820909741096,-0.3473863696192412,-0.3399454967029662,-0.3140052577806209,-0.2745228943891725,-0.22755958974542392,-0.17905661321510938,-0.1346221187526439,-0.09621497797539232,-0.06403461459027535,-0.03642129177188491,-0.010726856810977575,0.014832464353926881,0.042913159942413535,0.07450652473313243,0.10935538176857691,0.14616402471554743,0.18228298265091178,0.21662931042052797,0.24820282262761187,0.276825413635528,0.3030549062420725,0.32718611821122773,0.3510098521558295,0.3755807844568414,0.4014495393744821,0.42852998672701875,0.4560627138572881,0.483206339589268,0.5089227947018062,0.5325321331007643,0.554005067211965,0.573954992552592,0.5937469393570765,0.614661869103869,0.6375330983361749,0.6623499963082946,0.6880710152716549,0.713169729642779,0.7358647876018122,0.7550065563933731,0.7706949254046241,0.7844021968290651,0.7988357932780525,0.8167003457937806,0.8396995876411458,0.8676281343890815,0.8981214964369835,0.92694868861348,0.9495318855969114,0.9624102206930217,0.9645613433735388,0.958118163295829,0.9471385732120038,0.936975559145553,0.9319172122478847,0.9334030956130511,0.9393432366250485,0.9444048935128002,0.9424013972288345,0.9286665242526522,0.9022448478525634,0.866822969607711,0.8298478186112779,0.8000285401142821,0.7839124612865734,0.7827822180848797,0.790995489653751,0.7969706351024599,0.7857944093787647,0.7438353090576952,0.6633195883171958,0.5453236434843095,0.4009770520518963,0.2484240954596444,0.10862690346715519,0.0,0.0,0.0,0.0,0.0,0.0,0.0,0.0,0.0,0.0,0.0,0.0,0.0,0.0,0.0,0.0,0.0,0.0,0.0,0.0,0.0,0.0,0.0,0.0,0.0,0.0,0.0,0.0,0.0,0.0,0.0,0.0,0.0,0.0,0.0,0.0,0.0,0.0,0.0,0.0,0.0,0.0,0.0,0.0,0.0,0.0,0.0,0.0,0.0,0.0,0.0,0.0,0.0,0.0,0.0,0.0,0.0,0.0,0.0,0.0,0.0,0.0,0.0,0.0,0.0,0.0,0.0,0.0,0.0,0.0,0.0,0.0,0.0,0.0,0.0,0.0,0.0,0.0,0.0,0.0,0.0,0.0,0.0,0.0,0.0
0.9645613433735388,1.0582644069502916,1.084955767059096,1.0574331024641543,0.9984255664093102,0.9334030956130511,0.8831988624741137,0.8591946185795651,0.8613996134856214,0.8804653600354431,0.9022448478525634,0.9131499607731554,0.9047873803363881,0.8759611704683095,0.8321493644614185,0.7827822180848797,0.7375265159854959,0.7031426678258171,0.6816109188390788,0.6702382505868569,0.6633195883171958,0.6545620789741583,0.6393780097782568,0.6161783538375034,0.5864537291973515,0.5537754143926082,0.5222445152073902,0.49504443790353214,0.4735503202515633,0.45723335876769733,0.44423124046802065,0.4322590997147122,0.41945560344254973,0.4049045065963699,0.3886981714989485,0.3716351090941239,0.3547551022902787,0.3388831976938236,0.3244063141123127,0.31125192377288874,0.2990389777202272,0.2873035362623905,0.27563389262698273,0.2637893127838086,0.25169642691404986,0.23940506855026192,0.22704392478540567,0.2147584398963951,0.2027037884359161,0.1910150024445542,0.17977115938029667,0.16846199341341156,0.1578675939553525,0.14760178245901498,0.13717564480911895,0.12624457119715893,0.11429665507196905,0.10256097616239639,0.09147471228996691,0.08143688500070662,0.07271798301402119,0.06489541882156606,0.058655079454676184,0.0534561120710378,0.04857314523871849,0.04337945785326517,0.03712517787980436,0.0306952851549196,0.024427239296612006,0.01874560571002414,0.014040932692509162,0.010138579855311698,0.007718298578231499,0.006447262820763824,0.005761301433545603,0.0050805677545481265,0.00362600883553207,0.001872176751587698,-9.543514762332879e-05,-0.0020840821876213843,-0.003879797183412905,-0.00568127955289129,-0.006959653562989372,-0.007862325339474981,-0.008657160707159328,-0.009596569477130706,-0.011086451748285117,-0.012626343475386624,-0.014005629060369094,-0.0149728545059356,-0.015313341770848506,-0.015153912130367118,-0.014194527189038615,-0.012642780071722495,-0.010817934014644034,-0.00903305276533529,-0.007863226407727488,-0.006885433952049605,-0.005881988068114397,-0.0045747469764504875,-0.002752763759822071,-0.0008969504003469818,0.0013804967204914189,0.003949207452929846,0.006625326268976001,0.00924098623430084,0.0115222805821588,0.013691753976883063,0.015888932607288738,0.01832321538134395,0.021234736228423756,0.025006723387190847,0.029660631200390804,0.035086554384740135,0.04102170487279579,0.047125218448586983,0.05313445249702031,0.05878537658938082,0.06394618202845222,0.06863602367119279,0.0730157006687502,0.07730266925199247,0.08182211698400582,0.08681693198008651,0.09240405702508896,0.09852461466779042,0.10479816239352638,0.1109437849301912,0.11652053604175787,0.12104717673969544,0.12403352866683061,0.1247861730071844,0.12312596280920009,0.11894945834176948,0.11242093440333994,0.10404539134955286,0.09442863054326123,0.08529836614715529,0.07879217415533263,0.0774821490634778,0.0840572540322751,0.1004572389366816,0.12859165053309282,0.16890850396799809,0.22016684467574618,0.27916134737213555,0.34023026812191354,0.3971848278713682,0.4428848199407157,0.47045152902717813,0.474265440711996,0.45028512264324466,0.39860545279967524,0.32239562709074104,0.22801095583013262,0.12419385145668098,0.020164693343852323,-0.07378836989370477,-0.14928679200179878,-0.20069187711674705,-0.22587773779863404,-0.22711465065598174,-0.20830395111810587,-0.17562100558349605,-0.13580342774005824,-0.0949419726335602,-0.05758713853787696,-0.02617219839251725,-0.0011169453234451511,0.018838834209143594,0.035993792531513615,0.05289698343268949,0.071787572027392,0.09387888880834132,0.11917732007195815,0.14655706182533917,0.1740899531246774,0.19984564345716185,0.22231982186632085,0.24109857345627594,0.25712033111916466,0.27242125198570616,0.28973457970884287,0.3112361182084609,0.3377556239642368,0.3682566475896491,0.39990901029265136,0.4291293511819394,0.4526466958349193,0.4689917861280022,0.4793929640601335,0.4876772930611468,0.499292686908667,0.5191434714432708,0.5495836414403454,0.5890146537990327,0.6316938595834644,0.6698324439969754,0.6956566980000711,0.7048050694589524,0.6986363435379319,0.6844133658594234,0.6743295950051817,0.6804051525377374,0.7102757182932729,0.7633481821570286,0.8291550674259853,0.8891311717432531,0.9207956921226808,0.9041794675732132,0.8280600207761253,0.69423107583353,0.5176919633616726,0.3239844710311515,0.14269922920092754,0.0,0.0,0.0,0.0,0.0,0.0,0.0,0.0,0.0,0.0,0.0,0.0,0.0,0.0,0.0,0.0,0.0,0.0,0.0,0.0,0.0,0.0,0.0,0.0,0.0,0.0,0.0,0.0,0.0,0.0,0.0,0.0,0.0,0.0,0.0,0.0,0.0,0.0,0.0,0.0,0.0,0.0,0.0,0.0,0.0,0.0,0.0,0.0,0.0,0.0,0.0,0.0,0.0,0.0,0.0,0.0,0.0,0.0,0.0,0.0,0.0,0.0,0.0,0.0,0.0,0.0,0.0,0.0,0.0,0.0,0.0,0.0,0.0,0.0,0.0,0.0,0.0,0.0,0.0,0.0,0.0,0.0,0.0,0.0,0.0
0.8280600207761253,0.9080210467803903,0.9296235536505976,0.9036244940200325,0.849519466638758,0.7894272409469996,0.7414530827409501,0.7163530072860332,0.7150722321175569,0.7304265675948862,0.7507944611178741,0.7642378255261921,0.7634219577131953,0.7466931032448784,0.717969102235543,0.6845782813910042,0.6539088432074233,0.6317702117209302,0.6200818774456227,0.6170419841562839,0.6183621016641344,0.6188256964502086,0.6150300201771214,0.605705234212797,0.591936378652499,0.5763375301859058,0.5615214569546844,0.5498207798423019,0.5419971392791283,0.5373734459100115,0.5343129587076773,0.5306958363459445,0.5253358750730481,0.5177911206219206,0.5084876652921417,0.4983943278431578,0.48836510801254834,0.47942022400943096,0.47207790239076064,0.46647432555500895,0.4624756969786383,0.45963667269798636,0.4578425016974059,0.45691705385951564,0.45667167289097965,0.4568341145706791,0.4568523338915977,0.4564613469513419,0.4553990130075296,0.45359383546919785,0.45119253216271976,0.4479205296891393,0.44508998992077253,0.4429581915466618,0.4415330975879047,0.4406081718776494,0.4392648399284523,0.4379729088527939,0.43627366789811506,0.4337220933105437,0.430023811592579,0.4245743926435916,0.41838522184737764,0.4117364361029737,0.40490220128482046,0.39812055251520595,0.39104122728113827,0.38450879147451444,0.3784075266859136,0.37243546413219236,0.3662172934378329,0.35892939000206825,0.35110639376845704,0.3427035983245571,0.33379767209749794,0.3245996619143661,0.3149683797515611,0.3058955828986903,0.2975831041013056,0.29001460747062524,0.28298203039089936,0.2757498075234792,0.2685662664830498,0.26109744766052384,0.25311137282960255,0.24458610019197805,0.23530337983076427,0.22633961109054404,0.21823670910278856,0.21143901384186173,0.20619016999305673,0.20197998887442944,0.19919290467851455,0.19741080650399054,0.1961075456347524,0.1948013630280735,0.19297512266274536,0.19090453865558413,0.18856205010204702,0.18601205854498448,0.1834125560630903,0.1810870098414754,0.17937212805382063,0.1781492862937273,0.17712862012098413,0.17598922304527304,0.17448426672692277,0.17286345431049538,0.17118659493772714,0.16964726218042103,0.16856589002745578,0.16814036941968163,0.16907193787883232,0.1714231218182573,0.1749562822858109,0.17918453438069212,0.18320574014754004,0.18679802700538697,0.189364479072435,0.19044699634861276,0.18980317873392843,0.18706407945516537,0.1828923930626334,0.1775856137286475,0.1714470520914811,0.16477462296907425,0.15747280795763985,0.15051351347321654,0.14459774662949187,0.14064074803309015,0.13974606720422003,0.142588876724883,0.15076583561430326,0.16497786574044437,0.18513188783289644,0.21002195627181716,0.2365727910724824,0.26162046511505443,0.2805717259239797,0.2883862627434883,0.28029784533941426,0.2520283216244275,0.20257443433653793,0.1331195948700479,0.04772960277738872,-0.04695354589412538,-0.143203490918115,-0.23133335706760652,-0.30290098204756327,-0.35158016797212654,-0.37420493712766506,-0.37195133025356775,-0.3478805674711857,-0.3079451849286335,-0.2592139440389199,-0.20852912225348286,-0.16204180073720623,-0.12239084797069476,-0.09032268894812362,-0.06460731878018157,-0.04285330737930064,-0.023098349791028774,-0.002635157917411567,0.01980948865173323,0.044404402776194805,0.07039795116247562,0.09642961066222779,0.12136885509326649,0.14428330545604937,0.16489302446108417,0.18364920970425186,0.20148155051259498,0.2198297312042951,0.23972118975462187,0.2615770546753617,0.2850291870724134,0.30891157583819406,0.33192970140752737,0.3527631903794397,0.37077885418352896,0.386409164440575,0.40108651813882734,0.41708725502027877,0.4364006254521336,0.46001773344887825,0.4873468432348191,0.5160489986755052,0.5430381932781304,0.565037330816339,0.580043985558299,0.5882845220290631,0.5922624465298809,0.5965569515986717,0.60556921800454,0.6220128459808109,0.645576937151979,0.6726231745805242,0.6970461497231091,0.712428010137141,0.7144509121972853,0.7028693522748949,0.6823562526450728,0.6606614766375262,0.6468997774054317,0.6477141636063515,0.664175178996647,0.6903820989218616,0.7138652598844708,0.7192220533818803,0.6924452907055791,0.6254810057183989,0.5193669234482727,0.38473537975451916,0.23967884682194654,0.10523322310162861,0.0,0.0,0.0,0.0,0.0,0.0,0.0,0.0,0.0,0.0,0.0,0.0,0.0,0.0,0.0,0.0,0.0,0.0,0.0,0.0,0.0,0.0,0.0,0.0,0.0,0.0,0.0,0.0,0.0,0.0,0.0,0.0,0.0,0.0,0.0,0.0,0.0,0.0,0.0,0.0,0.0,0.0,0.0,0.0,0.0,0.0,0.0,0.0,0.0,0.0,0.0,0.0,0.0,0.0,0.0,0.0,0.0,0.0,0.0,0.0,0.0,0.0,0.0,0.0,0.0,0.0,0.0,0.0,0.0,0.0,0.0,0.0,0.0,0.0,0.0,0.0,0.0,0.0,0.0,0.0,0.0,0.0,0.0,0.0,0.0
0.7028693522748949,0.7698640923168995,0.7870315314728867,0.7636336126366831,0.7163776003037763,0.664175178996647,0.6224169064684548,0.6002169762562898,0.598216387902932,0.6100418410790756,0.6254810057183989,0.6339926035206802,0.6291479436490808,0.6094960541726236,0.5785525914150886,0.5429603291710804,0.50949869680364,0.4838341404282539,0.46823086323899255,0.46159983595989174,0.46043965262376196,0.46001346708250623,0.45705279368661106,0.44990742722393456,0.438952546181082,0.42603453141432845,0.41314272154388304,0.40258818844508043,0.39555752307674524,0.39215650134816216,0.39162941020489495,0.3924369659691592,0.3937925330090153,0.3951296017645558,0.3963295199893432,0.39753638111894374,0.3985561729180601,0.3997110851440661,0.4009930930432545,0.4022882124898739,0.4034433520329925,0.40399405950822015,0.404185807439631,0.40419123797017836,0.404208330569427,0.4043586578354988,0.4043096808723881,0.40426427088510136,0.40429356263993815,0.404556219340008,0.40527396363800516,0.4059795328303869,0.4077525673020974,0.41060996464165106,0.41432985782413984,0.41851859796574076,0.42203537873211705,0.4253525504742621,0.42818082243141814,0.43033165847266813,0.43176323229347635,0.4319199855821873,0.4318884252228763,0.4319534468670512,0.4322975727279244,0.43297011989569384,0.4333161930517072,0.4338793041950254,0.43440881270841614,0.4345965347161213,0.4341770074979114,0.4325385313697034,0.43032522586948957,0.4277169746303916,0.4249372134263275,0.4222009197236291,0.41921644393981666,0.41662480096608145,0.41438673023705674,0.4123309247600699,0.41022483194934695,0.40743276991876237,0.40436875708407416,0.4010285005100862,0.3974733961160561,0.3938177510362781,0.39003379338069777,0.3865615044320087,0.3833674628988628,0.38034399929687973,0.37741067012320917,0.37468264279652386,0.3723794522951081,0.3704233751569664,0.3686461381357207,0.3668463675671734,0.36485740734710054,0.3628171266898109,0.36064178570358246,0.35837842153149496,0.3562820650111376,0.3547009381040329,0.3544630780225606,0.3558800606333393,0.3589229458364836,0.36316583174894274,0.3676204502614353,0.37162764486233674,0.37401078365456003,0.37371273777623665,0.37004959848674784,0.36257586337896275,0.35213805888131605,0.33948799734837515,0.32553934826639547,0.31119061219341937,0.2968248405331346,0.2834956266725192,0.2715214018991868,0.26107419456120806,0.2523316259000909,0.2451525490430227,0.24054479447443153,0.23895290280191378,0.24055254460127803,0.24497863983372756,0.2505506255792069,0.2558223534198299,0.25785186112672465,0.253033848992214,0.23762565376736428,0.2078516415234938,0.1626103362770942,0.10218429976344043,0.02918269831259365,-0.051536044565728835,-0.13407889551025357,-0.210360324773039,-0.27335947249782144,-0.317719909241332,-0.34069774289882193,-0.3433300883617603,-0.32796146327127856,-0.2996504188466188,-0.2644001138517096,-0.2279335120243066,-0.19534386539638135,-0.1682973143124242,-0.1470093894781937,-0.1300607245953956,-0.11516928114979125,-0.1007001735917653,-0.08430608683975799,-0.06526611179420268,-0.043913036635457876,-0.02134009664344234,0.0004941329928152345,0.021062931055881473,0.039804783298581295,0.056768200244922115,0.07248908786290656,0.08723098365153095,0.10227531514293325,0.1180633438904535,0.1346118394696726,0.15158340765077122,0.16830832889874378,0.18462985063719295,0.20031096009522142,0.2154800198953367,0.23067772743863585,0.24661684892374933,0.26442915787774146,0.28468967026448205,0.30738215798870655,0.33178734971646867,0.35645562914476103,0.38000889999947846,0.4009789129904696,0.41854432268051894,0.4328969719943015,0.4451678591172783,0.45755911760848966,0.4720766257824805,0.490000812222842,0.5113008943962499,0.5344615061525385,0.5566887449940404,0.574807915404616,0.5862050879097003,0.5897048167981984,0.5861843774872624,0.5777037333171683,0.5675783154284368,0.5588763543827183,0.5532833434376697,0.5505914483366448,0.5483962271618323,0.5435851763229441,0.5334396007739657,0.516861870077141,0.4950868982056997,0.4712188437319197,0.4494137766177851,0.43312162158847795,0.4234910905938871,0.4184701451190879,0.4129549003380757,0.40017969680577725,0.3738039827760794,0.3301203111106332,0.26958138871729737,0.1973013762404975,0.1218426921153272,0.05315691031649311,0.0,0.0,0.0,0.0,0.0,0.0,0.0,0.0,0.0,0.0,0.0,0.0,0.0,0.0,0.0,0.0,0.0,0.0,0.0,0.0,0.0,0.0,0.0,0.0,0.0,0.0,0.0,0.0,0.0,0.0,0.0,0.0,0.0,0.0,0.0,0.0,0.0,0.0,0.0,0.0,0.0,0.0,0.0,0.0,0.0,0.0,0.0,0.0,0.0,0.0,0.0,0.0,0.0,0.0,0.0,0.0,0.0,0.0,0.0,0.0,0.0,0.0,0.0,0.0,0.0,0.0,0.0,0.0,0.0,0.0,0.0,0.0,0.0,0.0,0.0,0.0,0.0,0.0,0.0,0.0,0.0,0.0,0.0,0.0,0.0
0.5897048167981984,0.6449837188638107,0.6583586399571711,0.6377984552674028,0.5974696150606574,0.5532833434376697,0.5182238924077539,0.49957366693673677,0.4974821509772151,0.5062001585210281,0.516861870077141,0.5206791932047307,0.5122470133116214,0.49059466181083633,0.45902608525650607,0.4234910905938871,0.39012981538921715,0.36372495019728013,0.34607250301935216,0.33597517231885815,0.3301203111106332,0.32431396344842195,0.3154649346358841,0.30208607992481556,0.28460475277372727,0.2648953379005672,0.2452281683225269,0.2279767351823242,0.2145577376352796,0.20531632297625904,0.19967036469050117,0.19628889214027326,0.19413434104621066,0.19233485923912216,0.19042659445386292,0.1882957068614784,0.18579284749072217,0.18325335208670493,0.18087039528133012,0.17875792660452947,0.17692104903245565,0.17500032093964657,0.17304753189554173,0.17097977530856764,0.16873725238830778,0.16629504957176003,0.16339434558667976,0.16043967550769345,0.15784053415606075,0.15609934058194433,0.15566905011106438,0.1561649596437701,0.15840425707990236,0.1621143291709125,0.16675487170582398,0.17168562850054025,0.17568546564666737,0.17923880056309807,0.182318976691882,0.18506627486038962,0.18770220689001613,0.18975591520233379,0.19216654215103549,0.1950102042958591,0.19821592842129224,0.20162391176468605,0.20444542176086997,0.20725878463567432,0.2100601124868843,0.2128397705117942,0.21554561663935595,0.21751994304595462,0.2192263877268687,0.22061096835329055,0.22165732310627084,0.22242850894414185,0.222555706060241,0.22289109238503754,0.22388480728970486,0.22594286146739187,0.22931140124892774,0.233471529337485,0.23873587890834128,0.24483775714375558,0.25141592419217984,0.25809363281386305,0.2643060712759054,0.2701782179977556,0.2757386284736403,0.2811886580016373,0.2868758643787984,0.29324071712837757,0.30071293258473336,0.30939256792807623,0.31909412434746004,0.3293764025133636,0.33954783664266897,0.349185118362446,0.3578405674865586,0.3653448423913368,0.37187694064792876,0.37770578572206365,0.3837620640859247,0.3907032632713503,0.398906483880524,0.40830257246802,0.4180220583707431,0.42747875574104394,0.4356456154405841,0.44159535345699896,0.4447282042881112,0.444505290350904,0.4417009371716714,0.4371102736758602,0.4316597717260114,0.426160953781203,0.42068627139900516,0.4159463758653682,0.41208308037934815,0.40921353585990883,0.4075937032742948,0.40720199072288016,0.40927570237914856,0.41466101884634576,0.42386663002192426,0.4366345572159239,0.45101863619986776,0.4649789513962217,0.47492702289380584,0.47659042321328915,0.46567541115755307,0.43807097470170336,0.39260373510386926,0.32996123888759443,0.25343154075358143,0.16866400232561904,0.08236246925131777,0.003071761591411176,-0.06177072268931917,-0.10654346673121878,-0.12834740650631496,-0.12798125864721402,-0.10796100961851048,-0.07347870606350554,-0.030825117863583457,0.013802524124660353,0.054804113794546506,0.08963153642251627,0.11731700396212486,0.13872977609636256,0.15595245475563566,0.17095636441349008,0.1865597544835795,0.20417904835666054,0.22413938981675788,0.24578049322875797,0.26729855541050734,0.2878762579714017,0.3063982876566748,0.32228864590468725,0.3356085317018802,0.346462411670708,0.35636509267652444,0.3662094833393353,0.37656997636523876,0.387586280522269,0.39877159278165636,0.4100150938893083,0.4207298943359197,0.430548047831578,0.4395640293426578,0.44819038423466867,0.45780592554198224,0.46935886928761766,0.48335758878002466,0.49957030766045335,0.5166835823764692,0.5333040894726839,0.5472217173451975,0.5564006209996725,0.5595765859782489,0.5563986131459218,0.5483747891919,0.5373248516620384,0.5252557068529167,0.5137839097664417,0.5036296985557722,0.4948406423208993,0.48659566451731323,0.47786845554580243,0.46799123355463457,0.4570915457483019,0.445848408669201,0.4354546688151545,0.4268884499034582,0.42033323913144305,0.4149066163512536,0.40890399377167075,0.4004272892163735,0.3882754027240084,0.37267524470825164,0.3554392427844367,0.3398317197152149,0.32911231520328343,0.3253506808226985,0.3282917869542006,0.3347407621024039,0.3394817731706154,0.33597202160927697,0.3184676163579628,0.2839083292001495,0.23298180974221366,0.17093451679074076,0.10566296477629933,0.04610449914052474,0.0,0.0,0.0,0.0,0.0,0.0,0.0,0.0,0.0,0.0,0.0,0.0,0.0,0.0,0.0,0.0,0.0,0.0,0.0,0.0,0.0,0.0,0.0,0.0,0.0,0.0,0.0,0.0,0.0,0.0,0.0,0.0,0.0,0.0,0.0,0.0,0.0,0.0,0.0,0.0,0.0,0.0,0.0,0.0,0.0,0.0,0.0,0.0,0.0,0.0,0.0,0.0,0.0,0.0,0.0,0.0,0.0,0.0,0.0,0.0,0.0,0.0,0.0,0.0,0.0,0.0,0.0,0.0,0.0,0.0,0.0,0.0,0.0,0.0,0.0,0.0,0.0,0.0,0.0,0.0,0.0,0.0,0.0,0.0,0.0
0.5595765859782489,0.6113650315829816,0.6226944544577109,0.6009577315573397,0.559566047689771,0.5137839097664417,0.4764013338357741,0.45484688179526794,0.44994060283451603,0.4569247323899164,0.46799123355463457,0.47532086528032585,0.47376468249749026,0.4620686519747767,0.44268433768705684,0.42033323913144305,0.3999866686634686,0.38516333747710885,0.37688253522976234,0.373715044680329,0.37267524470825164,0.3705080536980777,0.36493116092195954,0.35526202684828617,0.3424106043337293,0.3282917869542006,0.31495755650472324,0.3038740240702172,0.2954765132833603,0.2892084741982084,0.2839083292001495,0.2783363012808711,0.27166946346344295,0.26370349505197005,0.2548060099698226,0.24565410907737176,0.23686021730212564,0.22882040361041792,0.22151062535113186,0.21455702316313974,0.20739988895459402,0.19942898902667533,0.1903519064894623,0.1801275684854057,0.16899312393733243,0.15738054572935617,0.14573191293830126,0.1345936049540459,0.12436838097280462,0.11528566936171811,0.10736120250411829,0.10003618648616444,0.09354214322910755,0.08738722456138244,0.08108086184248203,0.07431806081118093,0.06677514314069423,0.059281903148178015,0.05227434307009636,0.046173474049697016,0.04127491911824358,0.03739062733502063,0.03483954691426283,0.03320654233522908,0.03193774492004033,0.030535757328991185,0.028291031241953354,0.025794051389614856,0.023326647297144013,0.021239585929955663,0.01979659553973878,0.018463570252343832,0.017730310423956442,0.017322700619408642,0.016884374547897072,0.01613108876573796,0.014738759044841085,0.013244471057055549,0.01202749584153194,0.01158899210977408,0.012465581991737132,0.015222777780554142,0.020154820530221426,0.02704480610817263,0.035328031369055456,0.044233930080908875,0.052964829277119964,0.060954374956710376,0.06763439240117883,0.07267042507082949,0.0760022781700806,0.07772570264153603,0.0784107404984634,0.07848559396046599,0.07834394914861184,0.07829224206995777,0.07834722054495633,0.07877995996738163,0.0794988621596142,0.0802402840197764,0.0805822059698349,0.07974563844800805,0.07741337343472726,0.07316057682763294,0.06679804295718653,0.05853083835084138,0.04879673110068532,0.03931557620539229,0.03227619228542507,0.030378735195429427,0.03647947073184785,0.05271526616377003,0.08110642223454297,0.1220962658175192,0.1743468323056366,0.2344959014307221,0.29674804131907606,0.3547322208174818,0.401140870185987,0.42896575375959434,0.43251233212959633,0.40777578061780917,0.3548578028316325,0.2769796118358839,0.18058122465309265,0.07452931840681207,-0.03171905622486717,-0.12773662785461565,-0.20497181978143783,-0.25762874622717935,-0.2834536953159722,-0.2845441187656552,-0.264866307850865,-0.23069413860944163,-0.18894352122726746,-0.1459363414042518,-0.10706980539143404,-0.0744212543025104,-0.04822472350456725,-0.02700532934371183,-0.008418987492531425,0.009259573620462149,0.02823762633759691,0.049387899183151666,0.0725883041067875,0.09695304162681416,0.12070680923895799,0.14324119029081384,0.16413664686241147,0.1836023011112359,0.2023250707461597,0.2206956415265449,0.23989480746712805,0.2604512929865746,0.28239603642065236,0.305256706736476,0.3277806853471891,0.349516351498551,0.37004137204037246,0.3894167510672406,0.4081883427267922,0.42682324958479034,0.44661968646812666,0.46842366599000207,0.49255215457003326,0.518587418776321,0.5452570176940124,0.57113439013532,0.5944635805939302,0.6139044515602269,0.6289864948258499,0.6400868690296881,0.6491369154841751,0.6580288163209439,0.6683892197546694,0.68099978634769,0.6954084899469296,0.7101006103103579,0.7227322075923353,0.7309187449072955,0.7330130778695303,0.7288082840241337,0.7191015711811902,0.7060567330623975,0.6921783077467227,0.6794402693578301,0.6687297168031802,0.6594107451558944,0.6500881788285396,0.6392138837901324,0.6258674608461299,0.6102471100134028,0.5936194768183023,0.5777791882538952,0.5641765876827998,0.5531334047337223,0.5434722779498403,0.5330669427075818,0.5195647166068096,0.5017220629354969,0.4803993486213149,0.45870125806853645,0.4416189235567901,0.4338726974409634,0.4381037457815,0.45322722148472133,0.47364634721175236,0.49063824888150437,0.4936928910621904,0.4737454211309928,0.42605509434812777,0.3518476183319144,0.2592887347629495,0.16077312167969796,0.07030075597589189,0.0,0.0,0.0,0.0,0.0,0.0,0.0,0.0,0.0,0.0,0.0,0.0,0.0,0.0,0.0,0.0,0.0,0.0,0.0,0.0,0.0,0.0,0.0,0.0,0.0,0.0,0.0,0.0,0.0,0.0,0.0,0.0,0.0,0.0,0.0,0.0,0.0,0.0,0.0,0.0,0.0,0.0,0.0,0.0,0.0,0.0,0.0,0.0,0.0,0.0,0.0,0.0,0.0,0.0,0.0,0.0,0.0,0.0,0.0,0.0,0.0,0.0,0.0,0.0,0.0,0.0,0.0,0.0,0.0,0.0,0.0,0.0,0.0,0.0,0.0,0.0,0.0,0.0,0.0,0.0,0.0,0.0,0.0,0.0,0.0
0.7330130778695303,0.8016646515030935,0.8175993986786726,0.7904545782650797,0.737752150122985,0.6794402693578301,0.6319466943319116,0.605141931864384,0.6000855117843437,0.610466816896195,0.6258674608461299,0.635457866634345,0.6324032263079976,0.6149354935800638,0.5863453274073506,0.5531334047337223,0.522057721958141,0.498648861085363,0.48507108830195744,0.4801586521660405,0.4803993486213149,0.48122663550949696,0.4794688923563164,0.47364665643166937,0.4642704145778285,0.45322722148472133,0.44251214482647394,0.43412596797785896,0.42889393587757313,0.4265483591583288,0.42605509434812777,0.42588147783486807,0.4252454077538332,0.42379761985603254,0.4217286329382643,0.4195111492270077,0.41734151698860844,0.4156405846498011,0.4144459161242837,0.4136175960733128,0.4129672041058877,0.41214244621249163,0.4113525222165584,0.4108019021963365,0.4106891967382455,0.4110631659707615,0.41152464538471867,0.4118873233098376,0.4117905698050957,0.4109346787421406,0.40915912783563535,0.40588455058376033,0.40213260076543644,0.39810798888903254,0.3939640032102105,0.38981442995826643,0.3852510931684323,0.3810960930512892,0.3773256990679786,0.3738248266908341,0.37046973208089745,0.3667878557040758,0.3634330448064262,0.36037679737842604,0.35753725024457367,0.354812655358026,0.35178578542125244,0.3489056335101525,0.34598958390824636,0.342804394783616,0.33915557863515455,0.3347231570071827,0.32998299717053825,0.3249822511630035,0.3197730569332905,0.31443084804003746,0.30866440426702313,0.3031882857448709,0.2981553188318162,0.2936540110472706,0.28970611744492036,0.2856954375565139,0.28222543583676046,0.2792388606449713,0.2766141498957657,0.274184962023171,0.2713192077268238,0.2684244847890171,0.26538766957947796,0.2621314980664472,0.25866380660142163,0.25478486636382236,0.25117529265336125,0.24804636678700667,0.24552117504070473,0.24358676807504648,0.24173707492278698,0.24003185177787434,0.2378215883337195,0.2342683650579553,0.2285097295486713,0.2195489007055353,0.20751570135673494,0.192530391965824,0.17519870204403384,0.15657698058671035,0.13768895433570508,0.1203550008888472,0.1056009363830546,0.0938190309472857,0.08464423162474936,0.0766778069508927,0.06886369621802046,0.05962034313657461,0.04775585820437561,0.032943781503391764,0.01565209076494931,-0.0014963793958848591,-0.015340989836563007,-0.022242758399171177,-0.018756668617965856,-0.002796039413808882,0.02722238566203031,0.07051478200458904,0.12433979300285751,0.18428395980368625,0.24431371449238234,0.2992064752338281,0.3437389161927094,0.3738856491661745,0.3873245882253383,0.38308069954555957,0.3633590478389116,0.33148230848987886,0.29185948612154305,0.24930118512738753,0.2077125055332754,0.1713740748548002,0.14277122978404067,0.12289382009493342,0.11127778202943674,0.1056824698470807,0.10446765577060897,0.10540654569139307,0.10666568589892349,0.1071134394815477,0.105890772578909,0.10393486033182793,0.10217749791266374,0.10161439072206402,0.10294909693365867,0.10592522394238693,0.1106587187381728,0.11647093063971628,0.12252915467517767,0.1281355897300154,0.13263662332928347,0.13656736046596357,0.14065504859253725,0.1459068353475592,0.15332208252637214,0.16337677172778242,0.17648120528402503,0.19228571316526172,0.2099241157299683,0.22822174334372264,0.24597649408546096,0.2623396315422107,0.2769838346089431,0.290255894939672,0.30312140416107314,0.31693426417438747,0.33301913148960294,0.35229039651976385,0.37487459542149226,0.3999371636825559,0.4256798813495851,0.45006819550703286,0.47090915990881493,0.48663069128389896,0.49675292320403863,0.5018485921616164,0.5040823177433512,0.5056501300966528,0.5084456837777506,0.5134497318251817,0.5202552376654729,0.5276047606628778,0.5331884446187171,0.5346061357044496,0.5301465404463248,0.5192782812050388,0.5029976808726228,0.4832094228355708,0.4621751764067139,0.4417806069522982,0.4229358886766292,0.4056321172732925,0.38894862777422184,0.3717608337645865,0.35341467345827154,0.3341168503525388,0.3151446402725139,0.29811739437054535,0.2843313635387643,0.27399773360992713,0.26573173838785386,0.25690534892627237,0.243997046459277,0.22380188344262905,0.1945807937615827,0.1567825535305122,0.11349779957422663,0.06947345497288077,0.030094528394367395,0.0,0.0,0.0,0.0,0.0,0.0,0.0,0.0,0.0,0.0,0.0,0.0,0.0,0.0,0.0,0.0,0.0,0.0,0.0,0.0,0.0,0.0,0.0,0.0,0.0,0.0,0.0,0.0,0.0,0.0,0.0,0.0,0.0,0.0,0.0,0.0,0.0,0.0,0.0,0.0,0.0,0.0,0.0,0.0,0.0,0.0,0.0,0.0,0.0,0.0,0.0,0.0,0.0,0.0,0.0,0.0,0.0,0.0,0.0,0.0,0.0,0.0,0.0,0.0,0.0,0.0,0.0,0.0,0.0,0.0,0.0,0.0,0.0,0.0,0.0,0.0,0.0,0.0,0.0,0.0,0.0,0.0,0.0,0.0,0.0
0.5301465404463248,0.5741722096427319,0.5774328631345562,0.5472334979977682,0.49691251991859453,0.4417806069522982,0.39476084968526104,0.3637319653118919,0.3499787394463839,0.349107077631581,0.35341467345827154,0.35471979907092455,0.34747456096395335,0.3298513680896585,0.3038386302232418,0.27399773360992713,0.24538327865094983,0.2223113533213771,0.20677348663989786,0.19830556054640996,0.1945807937615827,0.19227923157739266,0.18887504047936876,0.1829283032059025,0.17442479878326161,0.16445753285655865,0.15435189570477098,0.14573414428971193,0.13952064543773324,0.13588066987952102,0.13433427195153458,0.13375899373262107,0.1335104527074613,0.13305571733866617,0.13220250416036583,0.13103277750278486,0.12948894256302804,0.1280753697751905,0.1271416701044741,0.126972127449784,0.12773128305403508,0.12913795231714986,0.1313099229654049,0.13411905178507522,0.1373605030658921,0.14077147344780355,0.143775538653404,0.14644018751458282,0.14884250762567802,0.15120832806230694,0.15381166384157208,0.15626339940005093,0.15939142858947275,0.1631275284135067,0.16722642355104575,0.17138067516823183,0.17478999860935399,0.17805537835287522,0.18133198603363845,0.18487331247126507,0.1889496864948916,0.19324198038874993,0.19841585064563547,0.20443937706533014,0.21110346378852574,0.21807910371546596,0.2245622727482618,0.23075345849507622,0.2365514091865033,0.24198828079151932,0.2472085209360403,0.2520537119803199,0.25713547256686203,0.26267621366328675,0.2687662943341405,0.27532321582743297,0.28169390875361955,0.28794154658832083,0.2937888982419424,0.29900424524958524,0.30343791071882553,0.3065998154206037,0.30899162939201746,0.31090296928071987,0.31266130877789716,0.3145358036912177,0.31660108040220686,0.3189359590923371,0.321351721131665,0.3236235920492893,0.32563369666360986,0.3277866633034652,0.3301234015402229,0.33277783210359735,0.3358003719769755,0.33911739410174585,0.342714700515244,0.34622209532791554,0.34921797121641956,0.3513731748691478,0.3526010915398819,0.35316593154549275,0.3535841652061359,0.35434093730728544,0.3557853843322348,0.35798714489810113,0.3606200620388124,0.36323654111667936,0.36504721075940727,0.3652752662022308,0.3633731982563204,0.3590146060301333,0.35262190433526136,0.3446716393297184,0.3357433600816819,0.3263832959208168,0.3168042148989693,0.3077138432811152,0.2995993371384802,0.29315588855411734,0.28939339358531313,0.2892774923804771,0.2945784890253758,0.30638672358713226,0.3249448154630301,0.349158853158041,0.3758285474478623,0.40103848786864116,0.4191092404928303,0.42372411460475345,0.4089243127307689,0.3696783984575806,0.3047121802913604,0.21555414561752134,0.10724364858864621,-0.012098996420149827,-0.13293979906976194,-0.24383579329793867,-0.334976589671533,-0.39920213991164133,-0.4331223055710685,-0.438231859022807,-0.41833600778736585,-0.38049582328630155,-0.3329319552253339,-0.28344838249361054,-0.2387832037825262,-0.201746452864041,-0.17306264162508472,-0.1512960525863519,-0.13377445941615257,-0.118252114268128,-0.10180011028249115,-0.08319829383364002,-0.06243676469956562,-0.04041936539952981,-0.018985657133191104,0.0013245067035507064,0.01995068382433982,0.0369612651052796,0.05293572861709296,0.06823943828549027,0.08413043146474757,0.10100545045974325,0.11878281911586898,0.13699819635561283,0.15486104248357377,0.17217450320528896,0.18873293146070297,0.20478603204193835,0.22106066409413266,0.23845212089543744,0.2582851734978575,0.2811914552402575,0.30708413911562893,0.3350521500445038,0.3633104989980922,0.3902547684062916,0.4140817580861918,0.43367933548467835,0.4490436359948749,0.4611494480298714,0.47243218267157877,0.48506950757229755,0.5005985618234354,0.5193065834490547,0.5399862734865506,0.5601452703883469,0.5767230530239692,0.587018165892169,0.5895695309032344,0.5848865671121534,0.5745199567423893,0.5615191063846205,0.5489565603116581,0.5388285753461467,0.5315124330145048,0.5252000914217738,0.5173209702132587,0.5053861911308353,0.48808761978905907,0.4660308770099876,0.44140537353705717,0.41750676166931633,0.3972884268255876,0.3820201640268238,0.3704838956191455,0.35895215218667187,0.34229478786154277,0.3156003513982661,0.2759527082645885,0.22368959422267987,0.16283345464574706,0.10016330302225471,0.043573481550947514,0.0,0.0,0.0,0.0,0.0,0.0,0.0,0.0,0.0,0.0,0.0,0.0,0.0,0.0,0.0,0.0,0.0,0.0,0.0,0.0,0.0,0.0,0.0,0.0,0.0,0.0,0.0,0.0,0.0,0.0,0.0,0.0,0.0,0.0,0.0,0.0,0.0,0.0,0.0,0.0,0.0,0.0,0.0,0.0,0.0,0.0,0.0,0.0,0.0,0.0,0.0,0.0,0.0,0.0,0.0,0.0,0.0,0.0,0.0,0.0,0.0,0.0,0.0,0.0,0.0,0.0,0.0,0.0,0.0,0.0,0.0,0.0,0.0,0.0,0.0,0.0,0.0,0.0,0.0,0.0,0.0,0.0,0.0,0.0,0.0
0.5895695309032344,0.6431420802675565,0.654073183842279,0.6304519825635759,0.5866498291710474,0.5388285753461467,0.5002926922396954,0.47845387350866897,0.4735297078371238,0.47973461628526515,0.48808761978905907,0.48972976658615963,0.47904001318658973,0.45490986762831487,0.42057677113558184,0.3820201640268238,0.3456080879712753,0.31623456558762697,0.29587875070387093,0.2835116642318452,0.2759527082645885,0.2692077470732749,0.2600923605365377,0.24700077760233055,0.23017222344907565,0.21126228684557904,0.19244649453221596,0.17582344879077344,0.16263206002568104,0.1530934769168392,0.14657186542656958,0.14186681852118305,0.13792687671216058,0.13395212715372487,0.1295708177064354,0.12478539675572227,0.11972960032807135,0.11477722616625491,0.11022150400656358,0.10626496525727014,0.10299892808487496,0.10031711608203732,0.09818087307859823,0.09643510369008565,0.09487503422092579,0.09328314920849591,0.09138760879850064,0.089230589180797,0.08697940387242292,0.08496012455188644,0.08356737033211686,0.08271701992569623,0.08323818290478685,0.0850209421264878,0.08767793906800564,0.0906845572210553,0.09311887986468678,0.09522664048528394,0.09677492965556275,0.09764018733936342,0.09780174410999372,0.09690566216477788,0.09562052276221608,0.09401381801758238,0.09211234463155794,0.08996640813219314,0.08730936069609056,0.08489867767400458,0.08305502446442645,0.0820670030258499,0.08213107215439255,0.0829151456905166,0.08479079197918274,0.08758660440762964,0.0910193233934558,0.09475168411417259,0.09809618849875705,0.10116862997093978,0.10381313105315543,0.10591421286739615,0.10737229607395261,0.10777628174436966,0.10739372773219007,0.10628694805363811,0.10460151140431007,0.1025716582264694,0.1001973296017655,0.09815615531710528,0.09687490916801986,0.0966913901387697,0.09777102037898619,0.09976033896608909,0.10271867046218569,0.10635760298367922,0.11034658768796773,0.11438346311555875,0.1181464970461121,0.1216531216367513,0.12490286294349078,0.1279742714236728,0.13099590585213133,0.13420504961791482,0.13764661876157602,0.14125050484072535,0.14485381022589552,0.14827538529672468,0.15140512851943605,0.1543580546572931,0.1573806956609731,0.16091806543548487,0.165554864741318,0.1717757434514145,0.18018512215635238,0.19094237082309906,0.2037747801754415,0.21795704675989905,0.23219375893750097,0.24546798177056314,0.25668771535346774,0.2650846286977637,0.2703592287784801,0.27240828059631994,0.2721610388310712,0.2705877090581144,0.2686578109484802,0.2670878463895007,0.26581130934475383,0.2650993135047414,0.26471003003721305,0.2643409474880183,0.2638164640005214,0.2627809117655748,0.26207072509336843,0.26245453867530927,0.26466526089425463,0.26902098227835447,0.2745560240696217,0.2803432143750058,0.2841928635299479,0.2832103707341528,0.2742255005561876,0.25382564429037136,0.2207884469132012,0.1752334040017944,0.11929500878044509,0.057009353622880114,-0.006824700425943373,-0.06557858970013318,-0.11337428209399777,-0.1456948306685635,-0.1602067933104274,-0.15783043845222877,-0.14055461176472622,-0.11251548499153334,-0.07863227846825128,-0.04363594671259842,-0.011855427926911945,0.015206827933875676,0.03738035921101555,0.05593543467920042,0.07293489988523057,0.08991629670946297,0.10899858693120362,0.13098186880135282,0.1556632434795506,0.18199902393164064,0.20834783321143147,0.23334159460144244,0.25573606470843113,0.27492305073784207,0.2910631479780507,0.30485748061323364,0.3177948625336488,0.33105111517853386,0.345369025207202,0.36083876325617625,0.3767622169636194,0.3924254408833396,0.4068362179580939,0.41946563080547283,0.43061437853430173,0.4413278277259145,0.45358091321882577,0.4689530489731264,0.48816644678161053,0.5105992121968701,0.5341074258966005,0.5560650101636341,0.573618569145905,0.5850440805039437,0.5905840458594385,0.5924758814136851,0.5948276695378304,0.6015570762817741,0.6150766254255967,0.6350988222615643,0.6582944680453526,0.6792199432873876,0.691946395577713,0.6922924032064479,0.6796135986636902,0.6575402006156614,0.6327854078556668,0.6132942559896848,0.6051059901835526,0.6096659915087903,0.6224879360570065,0.6336688015486052,0.6305528694369772,0.6014918770786191,0.5397183843538904,0.4459839817222034,0.32924565751176277,0.20461735064877945,0.08968750475866208,0.0,0.0,0.0,0.0,0.0,0.0,0.0,0.0,0.0,0.0,0.0,0.0,0.0,0.0,0.0,0.0,0.0,0.0,0.0,0.0,0.0,0.0,0.0,0.0,0.0,0.0,0.0,0.0,0.0,0.0,0.0,0.0,0.0,0.0,0.0,0.0,0.0,0.0,0.0,0.0,0.0,0.0,0.0,0.0,0.0,0.0,0.0,0.0,0.0,0.0,0.0,0.0,0.0,0.0,0.0,0.0,0.0,0.0,0.0,0.0,0.0,0.0,0.0,0.0,0.0,0.0,0.0,0.0,0.0,0.0,0.0,0.0,0.0,0.0,0.0,0.0,0.0,0.0,0.0,0.0,0.0,0.0,0.0,0.0,0.0
0.6796135986636902,0.7399999889412696,0.7506496705945377,0.7209824203074544,0.6677168004315912,0.6096659915087903,0.5624527602216127,0.5346900125818701,0.5266958674244788,0.5318222909082566,0.5397183843538904,0.5402904651763313,0.5269733651636732,0.49844625697874,0.4583738281054482,0.41355805398070783,0.37133495358832697,0.3371269762450216,0.3130366371376195,0.2977160878430987,0.2873977236075253,0.27756787146256096,0.2645582090668621,0.24663846987475826,0.2242422747582386,0.1994398330382753,0.17498165909374128,0.15323856881126796,0.13553981134843762,0.12194539792802717,0.11148194246902536,0.10267588876799658,0.09405295102833469,0.08460142023560478,0.07394417631016587,0.06229747293761125,0.0503054022083758,0.038740343285318,0.028347915782223936,0.019697922597260224,0.013113003406197128,0.008666665473376736,0.0061200237735332995,0.005012124105507754,0.004725386624868982,0.004605120409329143,0.004121397021531841,0.0029342781707237518,0.0010092099507873638,-0.0014100286220455236,-0.00390276258753884,-0.006359259147415038,-0.007844592676822543,-0.008407581567318727,-0.008397820654163484,-0.008282000545372127,-0.008776077852489548,-0.00947720484616679,-0.010428122652961277,-0.011547886932857554,-0.012661238503205413,-0.013886194830255588,-0.014530007266312506,-0.014627398249445742,-0.014380963009805329,-0.014054142966952583,-0.014115980935027852,-0.014254761702858674,-0.014520248312346147,-0.014924330924067886,-0.01544704743069975,-0.016236469511035065,-0.01696619490686847,-0.017660915511146687,-0.018383505100443863,-0.01918306929199378,-0.020177450088386853,-0.021102175219030454,-0.021888563106881923,-0.02249461391341716,-0.02291909115328781,-0.02326553579746615,-0.0235072381832792,-0.0237552290060324,-0.024110799727071225,-0.024619003090318708,-0.025561390835501664,-0.026486729699746404,-0.02707916881422679,-0.027058640052200954,-0.026318915027349604,-0.025598356129194953,-0.024747538904706674,-0.023971492432325357,-0.023416545973966894,-0.02312521588166426,-0.02327206917419232,-0.023440133718626976,-0.023229314882336684,-0.02219275150129061,-0.01993151673597892,-0.016094866938932997,-0.0106850160787821,-0.0038778034534578953,0.003959777494430873,0.012333952281952889,0.020733173359844075,0.028590909429853893,0.03542479625945677,0.04084852670248506,0.04459942129988469,0.04654781157285144,0.046760862149635436,0.0454992750903058,0.04320643848050863,0.04046004318814837,0.037798217033459,0.035843439257608106,0.03498542505156348,0.0352745398731451,0.036320665076412045,0.037134375668442826,0.03671033833039312,0.03396059080493758,0.028135855049968336,0.019194026462936192,0.007870766827838185,-0.003404927561616708,-0.01109838427531282,-0.010808099094101334,0.0020673878494603263,0.031119077499695506,0.07902637076576852,0.1460157812924678,0.22949555415987513,0.32391828201578343,0.4207082621597013,0.510481241756715,0.5833436967942603,0.630541462017919,0.6457691761821066,0.6256179906233513,0.571739292079217,0.4895441100522442,0.38773519610815416,0.27698864562694714,0.167747645576994,0.07035557329633102,-0.007589110712918759,-0.06183113433660909,-0.0917918849282123,-0.1008784269847869,-0.09374140204017008,-0.076421245271296,-0.05476863382624227,-0.033455163813357475,-0.015946861884029752,-0.0027138259965239103,0.007168024133568483,0.01565217099936258,0.02488155730149738,0.03595426356267676,0.04995969401369762,0.06671459902317936,0.08527328438713881,0.1043219871431173,0.12261372297000518,0.13943478066203815,0.15472172559554406,0.1691132355655224,0.1837624169847372,0.19997718417536106,0.21888434028576323,0.24096853383836042,0.2658897439317044,0.29249858149675223,0.3190987957195522,0.3439693954602644,0.3658891089316348,0.3846421721625118,0.40123474600876724,0.4177104408575386,0.4365637150762727,0.45987835047429765,0.4884757967415814,0.5213800079330683,0.555684676097613,0.5878733639472077,0.6141529740234508,0.6320750709544709,0.6415252698573692,0.6446150856082007,0.6462454210967142,0.6509617673479607,0.661852902656679,0.6792415996921725,0.7001263950783155,0.7194662004256551,0.7312086624584057,0.7307730347376227,0.7169579295269756,0.6927962581225697,0.6646512790625807,0.6403072482310609,0.6259593726703117,0.6235190830053521,0.6291891580650519,0.6338595922461367,0.6255815925249849,0.5931897861458719,0.5300802364837287,0.4368517135749261,0.3219522486508581,0.19987041737262207,0.08754942140953659,0.0,0.0,0.0,0.0,0.0,0.0,0.0,0.0,0.0,0.0,0.0,0.0,0.0,0.0,0.0,0.0,0.0,0.0,0.0,0.0,0.0,0.0,0.0,0.0,0.0,0.0,0.0,0.0,0.0,0.0,0.0,0.0,0.0,0.0,0.0,0.0,0.0,0.0,0.0,0.0,0.0,0.0,0.0,0.0,0.0,0.0,0.0,0.0,0.0,0.0,0.0,0.0,0.0,0.0,0.0,0.0,0.0,0.0,0.0,0.0,0.0,0.0,0.0,0.0,0.0,0.0,0.0,0.0,0.0,0.0,0.0,0.0,0.0,0.0,0.0,0.0,0.0,0.0,0.0,0.0,0.0,0.0,0.0,0.0,0.0
0.6457691761821066,0.6745362747934273,0.6387986324143028,0.5474366086874881,0.41905642878237215,0.27698864562694714,0.14301983232423998,0.034442358830187404,-0.03998758455726602,-0.07996692640262221,-0.09179188492821232,-0.08588083459273847,-0.07159483752214914,-0.05618159503586292,-0.0433259204231592,-0.03345516381335747,-0.025529871444734783,-0.016912021031262908,-0.005829223993588642,0.00830281584796702,0.024881557301497374,0.04211369801314951,0.0590434546362619,0.07498231277454517,0.08991640574563058,0.1043219871431173,0.11846178122537018,0.13315568366285094,0.14881807350045906,0.16565826739303907,0.1837624169847372,0.2029237282045839,0.22340640446173807,0.24529203574810085,0.26846739108368306,0.29249858149675223,0.3166374087429402,0.34000306963843097,0.3618970608138022,0.3821332789779188,0.40123474600876724,0.4203808829023258,0.4410766853352463,0.4646259636738695,0.49158178069892955,0.5213800079330683,0.5523182160241668,0.5819317615137484,0.607677872491244,0.6277169807795857,0.6415252698573692,0.6497774476822696,0.6553354029755838,0.6608566721685155,0.6685136539423997,0.6792415996921725,0.6922002784613351,0.7054436958237991,0.7158433368217386,0.7203391175298199,0.7169579295269756,0.7055293395668243,0.6875727641021387,0.6659659338071875,0.643845240182986,0.6235190830053521,0.6057407521251986,0.5895268048434008,0.5728040853373126,0.5533944698983871,0.5300802364837287,0.5032670124001711,0.4750149696380701,0.44822250111245915,0.42541864732329193,0.40751684414240574,0.3930031235684422,0.37822747739187623,0.35812386533298507,0.32793569074777285,0.2849534518010828,0.22965838356943227,0.16636543487329847,0.10192325612183356,0.04419260661118843,0.0,0.0,0.0,0.0,0.0,0.0,0.0,0.0,0.0,0.0,0.0,0.0,0.0,0.0,0.0,0.0,0.0,0.0,0.0,0.0,0.0,0.0,0.0,0.0,0.0,0.0,0.0,0.0,0.0,0.0,0.0,0.0,0.0,0.0,0.0,0.0,0.0,0.0,0.0,0.0,0.0,0.0,0.0,0.0,0.0,0.0,0.0,0.0,0.0,0.0,0.0,0.0,0.0,0.0,0.0,0.0,0.0,0.0,0.0,0.0,0.0,0.0,0.0,0.0,0.0,0.0,0.0,0.0,0.0,0.0,0.0,0.0,0.0,0.0,0.0,0.0,0.0,0.0,0.0,0.0,0.0,0.0,0.0,0.0,0.0,0.0,0.0,0.0,0.0,0.0,0.0,0.0,0.0,0.0,0.0,0.0,0.0,0.0,0.0,0.0,0.0,0.0,0.0,0.0,0.0,0.0,0.0,0.0,0.0,0.0,0.0,0.0,0.0,0.0,0.0,0.0,0.0,0.0,0.0,0.0,0.0,0.0,0.0,0.0,0.0,0.0,0.0,0.0,0.0,0.0,0.0,0.0,0.0,0.0,0.0,0.0,0.0,0.0,0.0,0.0,0.0,0.0,0.0,0.0,0.0,0.0,0.0,0.0,0.0,0.0,0.0,0.0,0.0,0.0,0.0,0.0,0.0,0.0,0.0,0.0,0.0,0.0,0.0,0.0,0.0,0.0,0.0,0.0,0.0,0.0,0.0,0.0,0.0,0.0,0.0,0.0,0.0,0.0,0.0,0.0,0.0,0.0,0.0,0.0,0.0,0.0,0.0,0.0,0.0,0.0,0.0,0.0,0.0,0.0,0.0,0.0,0.0,0.0,0.0,0.0,0.0,0.0,0.0,0.0,0.0,0.0,0.0,0.0,0.0,0.0,0.0,0.0,0.0,0.0,0.0
0.7169579295269756,0.7753664889725064,0.7809835217312449,0.7450210291571485,0.6859304592299694,0.6235190830053521,0.5732998517489348,0.5428242456137591,0.5309724017173114,0.5301128062926451,0.5300802364837287,0.5223896199925918,0.5031688132490028,0.47389550792571294,0.43991124962845257,0.40751684414240574,0.380925935908042,0.36031459258309884,0.341700212893447,0.318629828666253,0.2849534518010828,0.23756503012508864,0.17804290739508413,0.1125714311913276,0.050186173477814025,0.0,0.0,0.0,0.0,0.0,0.0,0.0,0.0,0.0,0.0,0.0,0.0,0.0,0.0,0.0,0.0,0.0,0.0,0.0,0.0,0.0,0.0,0.0,0.0,0.0,0.0,0.0,0.0,0.0,0.0,0.0,0.0,0.0,0.0,0.0,0.0,0.0,0.0,0.0,0.0,0.0,0.0,0.0,0.0,0.0,0.0,0.0,0.0,0.0,0.0,0.0,0.0,0.0,0.0,0.0,0.0,0.0,0.0,0.0,0.0,0.0,0.0,0.0,0.0,0.0,0.0,0.0,0.0,0.0,0.0,0.0,0.0,0.0,0.0,0.0,0.0,0.0,0.0,0.0,0.0,0.0,0.0,0.0,0.0,0.0,0.0,0.0,0.0,0.0,0.0,0.0,0.0,0.0,0.0,0.0,0.0,0.0,0.0,0.0,0.0,0.0,0.0,0.0,0.0,0.0,0.0,0.0,0.0,0.0,0.0,0.0,0.0,0.0,0.0,0.0,0.0,0.0,0.0,0.0,0.0,0.0,0.0,0.0,0.0,0.0,0.0,0.0,0.0,0.0,0.0,0.0,0.0,0.0,0.0,0.0,0.0,0.0,0.0,0.0,0.0,0.0,0.0,0.0,0.0,0.0,0.0,0.0,0.0,0.0,0.0,0.0,0.0,0.0,0.0,0.0,0.0,0.0,0.0,0.0,0.0,0.0,0.0,0.0,0.0,0.0,0.0,0.0,0.0,0.0,0.0,0.0,0.0,0.0,0.0,0.0,0.0,0.0,0.0,0.0,0.0,0.0,0.0,0.0,0.0,0.0,0.0,0.0,0.0,0.0,0.0,0.0,0.0,0.0,0.0,0.0,0.0,0.0,0.0,0.0,0.0,0.0,0.0,0.0,0.0,0.0,0.0,0.0,0.0,0.0,0.0,0.0,0.0,0.0,0.0,0.0,0.0,0.0,0.0,0.0,0.0,0.0,0.0,0.0,0.0,0.0,0.0,0.0,0.0,0.0,0.0,0.0,0.0,0.0,0.0,0.0,0.0,0.0,0.0,0.0,0.0,0.0,0.0,0.0,0.0,0.0,0.0,0.0,0.0,0.0,0.0,0.0,0.0,0.0,0.0,0.0,0.0,0.0,0.0,0.0,0.0,0.0,0.0,0.0,0.0,0.0,0.0,0.0,0.0,0.0,0.0,0.0,0.0,0.0,0.0,0.0
1.0006505165814363,1.1011991019545087,1.133566507059725,1.1107631727749916,1.055989228500036,0.9952467711442393,0.9494344616640378,0.9303443511975865,0.93795878166436,0.9626570897960999,0.9898430257070422,1.0050682870739582,0.9998383408889927,0.9729318408721208,0.9300837105406767,0.8811841635743576,0.836097176569024,0.8024006877581775,0.7826402718243833,0.7745275375587467,0.772525301441673,0.7699131191639287,0.7620914719939231,0.7471894723258544,0.7263752613052838,0.7028780971094251,0.6801553564632523,0.6613600201102898,0.6478006108812321,0.6390023083491443,0.6332308927771773,0.6280758095661013,0.6220347896572452,0.6143841000191033,0.6053358849584808,0.5956884125397801,0.5860895945495641,0.5773937793474038,0.5699144838469694,0.5635920586355585,0.558145932302383,0.5530100648018927,0.5481639016635189,0.5435984636074958,0.5393592759034709,0.5354224922891397,0.5313811282565754,0.5271820199475397,0.5226706077202914,0.5178084998045339,0.5126990522758965,0.5067892129319015,0.5014759899262705,0.4968757354500183,0.49288067925918844,0.4892371010992594,0.48493793393460555,0.4807786971788102,0.47642147865847534,0.4715070242897692,0.46577514992262226,0.4585110060208135,0.45084261666856773,0.44288221503671893,0.43471512305937215,0.4264482364094078,0.41768062370565345,0.4094703255957773,0.4017991862253137,0.3944549766834852,0.38712132289619333,0.37901198096141053,0.37065735671795996,0.3618238789289526,0.35236137245140725,0.342312367193045,0.3312276519036869,0.32060732132533004,0.31112515527626894,0.30332979547479866,0.2975034114898965,0.2925602394163931,0.28928443970424944,0.28724141900489525,0.2858686160138226,0.2846182385648345,0.2823081330428165,0.2796858890100771,0.2768702525204766,0.2741123529486722,0.27173306563977245,0.2695280004706035,0.26845209601262043,0.26860908069120826,0.26988356518426776,0.2719671016429454,0.2740996036953307,0.2761343387410482,0.27717605557381336,0.2761903116095238,0.2722011376461184,0.2642425108416204,0.2525545347318014,0.23736718458274642,0.2194249069511387,0.19994611626679135,0.1802027344881955,0.16221663636756475,0.14718667271161368,0.13571271786434208,0.1276910948874642,0.12208813448841496,0.11799965088786789,0.11371806150699892,0.10759963731517075,0.09861187262070578,0.08665326942334399,0.07380450154005445,0.0633737773345177,0.060098937063413745,0.06953265035394732,0.09679675599962041,0.14602191140448137,0.21803603708005712,0.3098292689423793,0.41440379055957505,0.521349608689351,0.6191300988665549,0.6963710756006694,0.7444499260745236,0.7592749307652026,0.7418951908658415,0.6985886541546121,0.638442834839862,0.5713079618499458,0.5054553985376404,0.4457164394025535,0.39342652143720924,0.34629825020405947,0.30028972970171297,0.2516358663100782,0.19846364012269682,0.14223699068542972,0.08685063668009502,0.037706441869697516,0.0,0.0,0.0,0.0,0.0,0.0,0.0,0.0,0.0,0.0,0.0,0.0,0.0,0.0,0.0,0.0,0.0,0.0,0.0,0.0,0.0,0.0,0.0,0.0,0.0,0.0,0.0,0.0,0.0,0.0,0.0,0.0,0.0,0.0,0.0,0.0,0.0,0.0,0.0,0.0,0.0,0.0,0.0,0.0,0.0,0.0,0.0,0.0,0.0,0.0,0.0,0.0,0.0,0.0,0.0,0.0,0.0,0.0,0.0,0.0,0.0,0.0,0.0,0.0,0.0,0.0,0.0,0.0,0.0,0.0,0.0,0.0,0.0,0.0,0.0,0.0,0.0,0.0,0.0,0.0,0.0,0.0,0.0,0.0,0.0,0.0,0.0,0.0,0.0,0.0,0.0,0.0,0.0,0.0,0.0,0.0,0.0,0.0,0.0,0.0,0.0,0.0,0.0,0.0,0.0,0.0,0.0,0.0,0.0,0.0,0.0,0.0,0.0,0.0,0.0,0.0,0.0,0.0,0.0,0.0,0.0,0.0,0.0,0.0,0.0,0.0,0.0,0.0,0.0,0.0,0.0,0.0,0.0,0.0,0.0,0.0,0.0,0.0,0.0,0.0,0.0,0.0,0.0,0.0,0.0,0.0,0.0,0.0,0.0,0.0,0.0,0.0,0.0,0.0,0.0
0.7592749307652026,0.8102966216224253,0.7956797581865244,0.7258481753445362,0.6210366338017239,0.5054553985376404,0.40052665816249156,0.321385452736205,0.2734755483782914,0.2533697839357954,0.2516358663100782,0.256336911458489,0.2583177173674747,0.2525004206629153,0.23870059550940137,0.22043548887345812,0.20231261343442056,0.18905910460340314,0.1830121076894542,0.18387306803477113,0.18923511143683797,0.1954021637249215,0.19971675879109943,0.20068120303895562,0.19841509892530304,0.19429692449640207,0.18997939470154226,0.1874658439859218,0.18799906298872415,0.19203716474038168,0.19935873755596614,0.20913142993354822,0.22075361235970933,0.2335864661986783,0.24709220595432704,0.2607876905817652,0.27406403208465446,0.2867028881521777,0.2986571526060402,0.31025490307019,0.32221664360756425,0.3354031902834335,0.3508786556832184,0.3692936402133008,0.3906337104205878,0.4140685087203432,0.4379383692800479,0.460433207664529,0.4798328212584114,0.49504695701197643,0.505920373833122,0.5127670633861542,0.5179384088132484,0.5231449489189703,0.529725200367792,0.5382575872367645,0.5479629360297279,0.5581055566604097,0.5666831378369168,0.5714671882430701,0.5705948006404071,0.5627931381452643,0.5485640013148556,0.5291749564625217,0.5066583334567608,0.4833128891155138,0.46087732335582515,0.4409973478684651,0.42405118882552106,0.40947445884441,0.3960309775906204,0.3819499248015794,0.3662874040241412,0.34837632124338686,0.3282759686703623,0.3067330278107129,0.2846541855030565,0.2637489791262538,0.2452179088996899,0.22976110955322376,0.21743507803080533,0.20735526667834375,0.19892211194903345,0.19109214319736714,0.1829835358317548,0.17410969071077517,0.16411690358188563,0.15394741425792052,0.14445736596588563,0.13652548720703142,0.13078430339074504,0.1270075417786863,0.125414863422878,0.125363937575861,0.1259969466799691,0.12650702648443027,0.12615436062774457,0.12521286030638928,0.12390362559632755,0.12270579556136928,0.12222974957811546,0.12278618792683807,0.12521523990852146,0.12945874219046,0.13504164252171488,0.14121197385769926,0.14686711351071496,0.15183562336527048,0.15567405485482416,0.15832579309596,0.16019419813728306,0.16176280548669159,0.1644832445502708,0.16897759763132683,0.17532184310723872,0.1829717621236175,0.1906324054120639,0.1975183928187808,0.20252842549955416,0.20514663057815172,0.20574932610995195,0.20538685920938993,0.20618742770954798,0.20969271661163888,0.2165791437734684,0.22626150866023712,0.23676472298251697,0.2458474879585073,0.25109822509636404,0.2512214921163068,0.24677369121052228,0.24016969556346748,0.23546847987760222,0.23653217338889476,0.24571523002733797,0.2626345034855999,0.28359956593225133,0.30249671590768146,0.31184542677043336,0.30505696057634757,0.2784953157606775,0.23276415939284062,0.17314400387457757,0.10814858548599152,0.0475643003647184,0.0,0.0,0.0,0.0,0.0,0.0,0.0,0.0,0.0,0.0,0.0,0.0,0.0,0.0,0.0,0.0,0.0,0.0,0.0,0.0,0.0,0.0,0.0,0.0,0.0,0.0,0.0,0.0,0.0,0.0,0.0,0.0,0.0,0.0,0.0,0.0,0.0,0.0,0.0,0.0,0.0,0.0,0.0,0.0,0.0,0.0,0.0,0.0,0.0,0.0,0.0,0.0,0.0,0.0,0.0,0.0,0.0,0.0,0.0,0.0,0.0,0.0,0.0,0.0,0.0,0.0,0.0,0.0,0.0,0.0,0.0,0.0,0.0,0.0,0.0,0.0,0.0,0.0,0.0,0.0,0.0,0.0,0.0,0.0,0.0,0.0,0.0,0.0,0.0,0.0,0.0,0.0,0.0,0.0,0.0,0.0,0.0,0.0,0.0,0.0,0.0,0.0,0.0,0.0,0.0,0.0,0.0,0.0,0.0,0.0,0.0,0.0,0.0,0.0,0.0,0.0,0.0,0.0,0.0,0.0,0.0,0.0,0.0,0.0,0.0,0.0,0.0,0.0,0.0,0.0,0.0,0.0,0.0,0.0,0.0,0.0,0.0,0.0,0.0,0.0,0.0,0.0,0.0,0.0,0.0,0.0,0.0,0.0,0.0,0.0,0.0,0.0,0.0,0.0,0.0
