0.8550897843430175,0.8159766443265617,0.7858800303498105,-0.7381933001292063,0.7353689913036624,0.7209910390989703,0.6876256626203365,0.6641073551664657,0.6486239912784755,0.6314411007531652,0.7392577235711845,1.0,0.5394413640761381,0.4908114096083454,0.44934776362187584,0.37384914813915054,0.2906647579883921,0.26289078181391146,0.29756903576267396,0.335357940344356,0.34898073784071537,0.3277545140397592,0.3317838001334589,0.31480407353292006,0.3075817476305341,0.28753727844058213,0.2746457315494962,0.26140516391099505,0.25677005738593645,0.20046524764995288,0.20604260630791676,0.2204550962659431,0.2217798584068555,0.19493313195792436,0.18460146474437075,0.16702251634028784,0.15805109804366202,0.170832650224021,0.14386641220407406,0.12323472989954544,0.21442338829759683,0.3725479110413649,-0.018181511475283855,0.055053899345315044,0.05255569187378282,0.03853681138851929,0.0179205504529152,0.023243302052632114,0.056650679568306286,0.06719628743335267,0.0655870671800212,0.06907142696531209,0.06397882206134924,0.055139039227493344,0.053624949921654355,0.05467110149144053,0.04763562766083694,0.039321195748352376,0.043140898580670786,0.051275466024999085,0.19863147752708987,0.011704660080574797,0.0491943840150468,0.06391874112664077,0.05400169812745257,0.045845852349582446,0.03537102634086714,0.05416685289403423,0.07276596362167419,0.04843348454289163,0.07296577460223348,0.0985086802034316,0.19321564913886627,0.5129686526614248,0.05196227523547377,0.009366227576359774,-0.004389924997127642,-0.051511089364391395,-0.11067326524217008,-0.11206935842743108,-0.05214907347365339,0.012463947677169802,0.05152481091016231,0.05622730938456839,0.05823234002108657,0.07271976677474723,0.08048452979281184,0.07467029264887286,0.07640086869406505,0.08037999687617904,0.0836293571675967,0.0801173864244607,0.08706419472509541,0.23914354045980152,0.050911767012066615,0.08657346549087272,0.10176617031369434,0.08595625724073108,0.0779370802218101,0.07412904549158242,0.36294610277181555,-0.05425766267773901,0.054946060111295776,0.04567701813764536,0.04113117072387786,0.02671322759584893,0.04470694495791593,0.07305674297355585,0.08190256253077684,0.09390202963075032,0.09149749000349092,0.08495069621548025,0.08199803707665074,0.08743740389403427,0.08568339828508485,0.08862575562650242,0.08696752391111152,0.09110557690181234,0.08400668996441119,0.09022927529656931,0.2660625712284721,0.0716787065584899,0.09163514878029146,0.10981827537543892,0.09360583033182983,0.09404122082602245,0.07898320128596431,0.07447766858920014,0.10507813462913425,0.10584128851871377,0.1090321853397984,0.12634884172151845,0.24560317629816666,0.5481105807404498,0.07639287221691748,0.044985314779296105,0.010752963783943185,-0.02810868819743002,-0.09394775791087016,-0.11603246522150519,-0.04143417100114058,0.030856290643987046,0.04959570403287053,0.06786523550271124,0.07621994271251398,0.06987414374633853,0.08019384262306604,0.08290494129765548,0.07097116446574016,0.07073049243689312,0.07523769529975056,0.07504523691482383,0.08021584430607111,0.07420853867256118,0.1763678047973251,0.005830870822729165,0.080876159164778,0.07738151694680273,0.07957059170166965,0.06564353444683388,0.07058753570762012,0.0443460239105859,0.05826415870063067,0.06763300438819966,0.0550582290558299,0.08093522940205436,0.4383407163767323,0.024123736839091907,0.04030170853472479,0.03751141383881117,0.02101028421264241,0.0029646252604336788,0.008899687067667304,0.011501302792952642,0.03259911857009875,0.043937764125275176,0.04276325950678635,0.029098801970172963,0.03170539903553831,0.04472974314927342,0.02944867934609199,0.03158546686600888,0.040626668985292255,0.016195935997728006,0.043863630504074484,0.05350513209665604,0.040941562059360774,0.03587342554281965,0.03274414999629231,0.03217152701440532,0.042416764358400555,0.026843484729041838,0.037829521574973664,0.04585379623578932,0.027569584416123838,0.03062570609948398,0.024582378626880397,0.02958960636588825,0.017594514726187695,0.014967288114798728,0.03494851036698486,0.04007398185976227,0.034678003827617467,0.04120514119242559,0.035526741668296544,0.028334699763598117,0.026648141416202066,0.020156012407423218,0.025448853890073314,0.07089235092826401,-0.08024014321812074,0.023912217213914424,0.03934449109362244,0.059640827854041956,0.0453226198253418,0.03614711059592023,0.038427785922515945,0.04071179216943201,0.048026835391056226,0.035904922121329994,0.03611436748046763,0.042343129787748596,0.03615943669907822,0.0323223447464869,0.030946273304127435,0.044035493292555565,-0.04726488491742658,0.008616732234887821,0.049699735292335775,0.05801494382504357,0.06303821306991952,0.05396137635064104,0.05321289977828217,0.054092742789287884,0.05892140024422419,0.040844952285457405,0.038450164204285854,0.04560980241113458,0.042056965958819706,0.04787711876972129,0.0029323562047477193,0.023116408580857777,0.06686065513614063,0.07579425599064905,0.07454659213377964,0.0630714452268586,0.06494157466089213,0.06319320200427225,0.04988302560627486,0.03882752915100953,0.03688797782099213,0.043442538627249054,0.03985054485720576,0.047731890730708534,0.04087077426257932,0.04068006852044115,0.09597915208425463,-0.09730288151025633,0.04725111509471678,0.06377841485152655,0.06822331993318527,0.056206553052300975,0.05571320343587374,0.054490254826422314,0.05265645311895123,0.04307690465703936,0.03594649098520703,0.037879102100096936,0.040063566331262006,0.038049724350253764,0.03822135977459446,0.03615087640286638,-0.003209740009079597,0.023479132779212954,0.060327651127910734,0.05973213730284989,0.059430443826507334,0.062086881113842765,0.05592758930711293,0.052981378123594366,0.0498978030946036,0.04624127390074163,0.03140746457726952,0.03904653874208928,0.043542066732560475,0.039086461018898726,0.03727081592441831,0.03802555411559013,0.04596346534941872,0.05440393212426826,-0.01410012949300761,0.03050626690715028,0.06847344803051648,0.07200408363276266,0.06439542251115475,0.05774295108525364,0.06239735310253126,0.04615287611501593,0.06701147057428905,0.06400586350718598,0.05499142986516374,0.06406662916303855,0.06460198364327666,0.07176637081516345,0.057919707070619046,0.06513191668955695,0.057935058199338925,0.055031580786228614,0.04317210281067869,0.03874018559695276,0.042281126193777406,0.039420127268062315,0.04752713799149499,0.029732333036648267,0.03650445265719022,0.043827353507409746,0.10113652845616974,-0.09378333096712128,0.045458291946960834,0.07312504791105773,0.05931871111947289,0.0499934047315401,0.059243228935976854,0.055943258044663643,0.05260324122170718,0.055443335935658374,0.04717885464312748,0.04821479707336785,0.05735650161406422,0.27560815034554076,-0.002857924821052786,-0.07279247099993048,0.03832623691049079,0.04746041747890746,0.048999677483617644,0.05412624798808395,0.07918669606232913,0.08564503733278027,0.07781943698665773,0.061175316653868904,0.05453675839994094,0.06267987808042937,0.06439693798899827,0.06804424406158124,0.058978179507430485,0.06837035925176774,0.06996196255419063,0.06214609348604537,0.06284909935439689,0.06667606428692315,0.05967003054439381,0.05904482258374631,0.08846395434457222,-0.08661545201102103,0.04769140890135767,0.07686953579320598,0.08596787110324292,0.05917644431947244,0.05069361982416025,0.054877187540144125,0.05940515915577537,0.0727283644601007,0.055783190970963216,0.06441918458848303,0.19972734190015512,0.35626100458676724,0.035788914997024975,0.025186464056334807,0.01852647679435163,0.0008656229732747174,-0.022264825804135437,-0.013978857139820352,0.04179265664945319,0.3452317456409328,-0.030896325582314723,0.03130015197210999,0.023561416693232636,0.01534905852826752,0.0072864232448279,0.00692879525858992,0.03470844452543588,0.04706270928279377,0.022762697860540467,0.0073056698588289,-0.0030698548761428717,0.00529646023023959,0.05065598205977072,0.06571163587693346,0.059739614699545314,0.06109030216546029,0.06910031481346096,0.051452820593909133,0.030873598621593227,0.025520385769491595,0.02837056293189513,0.021016351497070783,0.02120189803498649,0.020687663155691816,0.01800534099955974,0.015290252125455737,0.049268842951913035,0.022503145784713713,0.03417628386671865,0.029888105685000926,0.04588242390520445,0.04068169605142653,0.041990582008534214,0.07579201125121682,0.20961488827440078,0.20235237775787815,0.007107795786053773,0.02074720031893982,0.013638507338809962,0.006413647744507463,0.006276573629503406,0.017332456416101934,0.03232435793287686,0.04358208686580888,0.04536340052093929,0.041359806262972997,0.04125349860543789,0.04554498792073926,0.040985315993921474,0.04719498576996075,0.04670112680513667,0.041219920325886644,0.04460981783798569,0.0376987000094447,0.06574524170747553,-0.10919473931148345,0.036423023043986535,0.052709986861727634,0.051339536051386685,0.03426613673436932,0.021279018071557868,0.018440929266695865,0.036359344412806624,0.041088526595662436,0.04367179608074552,0.06061524670942568,0.18828065314717332,0.2523595349379471,0.060454959858514346,0.0095507181713115,0.009346341624993511,0.0008501519512908469,-0.017246944447883925,-0.0053276101689996806,0.01631799099397696,0.03945089038139585,0.04777529137604793,0.049050670742484016,0.035450708580678024,0.04602028156872682,0.04738518659538588
0.035838713318607655,0.03657041698262426,0.03490382098903351,0.026226793169070818,0.040238596551405444,0.04133569808647007,0.03214593785326648,0.2996125773460044,-0.021156988635393992,0.05993543329168986,0.08258834268456673,0.05611649106655658,0.03964133434962219,0.014114544275653078,0.01495259953464796,0.0759577887007401,0.0921641625788091,0.08579801218204981,0.1772236359240831,0.6335975462493951,0.07899390999883835,0.05516621215467021,0.01565803095524637,0.014096197235904237,-0.014691734831095343,-0.01343578478416567,0.026389013351151697,0.0706500283093145,0.10486063760442244,0.1146261009028452,0.08831821564189574,0.09344618144196613,0.11044853640692555,0.09610497067813631,0.1908814261603758,-0.22445352815704472,0.11154757853933996,0.14602893923450253,0.18729814103101375,0.15678064525363639,0.11914255676258019,0.11280822451397206,0.15471055297698663,0.13698738304657287,0.11420232580307917,0.18865012816505014,0.18052298760469412,0.154020915561016,0.13870862723300242,0.12296696051533022,0.12732009751808013,0.14079321557537264,0.12529364709668364,0.1139798689284712,0.131385721318757,0.17156067410198403,-0.10764450179540598,0.09469344948032,0.1436794998607412,0.17047928297123288,0.12146408520399435,0.11045771372750732,0.09319188856727939,0.12754848568890137,0.1407113498077772,0.11977058179691202,0.14437380534494443,0.287757684816369,0.6361172367527582,-0.1318662026861553,0.07685565046830929,0.07148657356483153,0.04766641180449512,0.047647178658779814,0.06156764687527453,0.08832871419985981,0.13517827446324793,0.16319996091954686,0.1499407502712899,0.14456759323415852,0.15806123420023957,0.1545922279735821,0.1434795685578713,0.15585514967852498,0.17687079953507093,0.16589777206296857,0.15572581720471662,0.15613112249922997,0.16725049729904934,0.18751361535541577,0.04088605040737458,0.13435241759799263,0.17367748041112985,0.19860972288899062,0.13563168646137816,0.14614848958401486,0.12790967461233688,0.14870001760085894,0.17922589396300131,0.1457815893260652,0.14386633900734197,0.2927292655505843,0.9739823744755234,-0.0595188802564228,0.04440254600331087,0.007028499763876825,-0.027351605270886207,-0.1079121472066308,-0.09898515920982283,-0.016481306741782133,0.060839721547259966,0.0884391370452636,0.08758780659916436,0.09758817604186894,0.10120195155726716,0.10281955326601229,0.12218808978934528,-0.02414043597637104,0.060269343213012756,0.13372445599907945,0.141538908171549,0.12186096947734845,0.12459821578309516,0.1175681054581566,0.13209154847704227,0.11071229210268159,0.0802304632907266,0.09198025249079983,0.13268454957436943,0.10264121240350224,0.102206023361038,0.09905362518004503,0.11638386184661123,0.1193800139292388,0.3083789386582212,-0.009536858794228088,0.15596356210764878,0.16739554752354607,0.15287362194402188,0.12387980646672506,0.12228692293298558,0.1118899055999169,0.10845772657812576,0.08823592857323201,0.0965999461486769,0.10167762312516722,0.08589280770547185,0.08138372163210228,0.07845940216655622,0.08084873070996781,0.1927706673507771,-0.17064692387142566,0.07882694021713411,0.12694592533371668,0.12770444042189444,0.10698128567386478,0.0840136737823521,0.08781523519498735,0.08952146524531751,0.11685383960210821,0.09727350384894619,0.10733954738278664,0.1079012608425547,0.07719377153390283,0.08854636719611944,0.07688872820314441,0.06394360591538638,0.06640653781525604,0.08197224875972038,0.4057943045180514,0.026419149699927178,0.11209823096162533,0.12232979682446028,0.1250423676692153,0.10736563966976329,0.12090123011010394,0.1017714955619793,0.09742631886428797,0.11261008265806531,0.07850894898806164,0.07531480952857429,0.08503457748685082,0.10152703871273609,0.11127172168611238,0.09931799851362705,0.1619966980155714,-0.20250843255354356,0.09951965359268498,0.14974805450089354,0.18670590601855455,0.16248455290241695,0.15009501900959263,0.1599196775017581,0.15059609028355192,0.1025285746427131,0.0846205635503985,0.10061066549446464,0.12177020419293698,0.10304433407465759,0.15663896191806775,0.5806599329451655,0.13606320942719013,0.08642502537883873,0.06616702078551878,0.0565155167705444,-0.011710143824256483,-0.07256603612526258,-0.020215311230000338,0.06694555711656042,0.10452671446359336,0.08091170417653243,0.07925542301856818,0.08591130830899343,0.0886159321270382,0.08977086598705843,0.07794192795413907,0.08421500777466559,0.09397296356483942,0.2523960671340382,-0.08745351592988393,0.12632287825507335,0.1482409338481767,0.15904361493317973,0.13531008103628264,0.13280278948067925,0.14783780415159975,0.14421754555174016,0.1420534081988765,0.11367812704698213,0.1086708763462672,0.18357403484236332,0.7619341043291389,0.04216370199903319,0.028811635732858044,0.07530432958366289,0.059656915057894694,0.03499305871727532,0.03838716881035322,0.08929651674988749,0.0979714654960203,0.08654347471449385,0.08959529354650074,0.10043389581358986,0.08944530984855682,0.09001184169748486,0.12868993039759097,0.15165241168014915,0.16055107240848557,0.1362839756296313,0.1258811652017747,0.12762559336127322,0.17793892185746174,0.15455116437322766,0.12192201718444265,0.1396680451818391,0.17825968716506166,0.33010188565044174,1.0,0.22014036379583748,0.07746483831945833,0.04256475787024011,-0.026856946437122126,-0.15950965817781484,-0.1994449337849449,-0.10451766291423133,0.024471338228600398,0.11311050772041972,0.09925546980904433,0.11500904077807912,0.1287095835597264,0.17547331742463784,0.4444028225084696,0.08925740892742093,0.20069149881645876,0.20801499885049246,0.22727550128930063,0.2150445474583689,0.2262615990331227,0.22473646483252402,0.19553808263549105,0.1424119355376868,0.14404379344596627,0.16447010894537892,0.15633554219796522,0.28553218151114007,0.5843944707476527,0.12974277428824987,0.12700315259493597,0.1167058852478084,0.062372172509094034,0.0029250726255049884,0.010077017558938743,0.08415022313911637,0.12705168038216297,0.0875435440047615,0.08585294664483357,0.10270053699679035,0.11110487838443925,0.12383747909085749,0.17110178294047904,-0.20058183594823917,0.11454561968023015,0.1553129508493498,0.15845567534963503,0.15617652944394203,0.15185389384698394,0.15850396794832422,0.14832802627805328,0.13138918355795565,0.11032486297132764,0.11382833195163004,0.14176874303829295,0.5054475160473807,0.13540138707230706,0.12194874905499564,0.1349360022908515,0.15213682845611678,0.10820418389534962,0.08573584982046302,0.11632288886033987,0.13171111179777836,0.10791874098386701,0.07612011088744869,0.09050174929839154,0.0938755549313643,0.08111985868295803,0.11338365874202042,-0.051269984796961085,0.06336626482344837,0.11408529952311498,0.12482271389669085,0.1023577472542274,0.06730432516188249,0.05770835246267536,0.05894898267139986,0.08864135392217345,0.047584172384294444,0.04341359104482643,0.06662656384144643,0.045230342475005965,0.031011755619828663,0.027379937206182533,0.04821258428562657,0.04397541781648816,0.07360275099103471,0.05440121664173809,0.05521984583505465,0.06590777542128509,0.11648238392436394,0.07545653061596186,0.06955550155243811,0.11855725635133953,0.11204913627540662,0.1190157475928999,0.10610595729304097,0.12196531007660213,0.14444814872384767,0.199278380067188,-0.14157287372100563,0.16460412312217101,0.22746299095165737,0.0,0.0,0.0,0.0,0.0,0.0,0.0,0.0,0.0,0.0,0.0,0.0,0.0,0.0,0.0,0.0,0.0,0.0,0.0,0.0,0.0,0.0,0.0,0.0,0.0,0.0,0.0,0.0,0.0,0.0,0.0,0.0,0.0,0.0,0.0,0.0,0.0,0.0,0.0,0.0,0.0,0.0,0.0,0.0,0.0,0.0,0.0,0.0,0.0,0.0,0.0,0.0,0.0,0.0,0.0,0.0,0.0,0.0,0.0,0.0,0.0,0.0,0.0,0.0,0.0,0.0,0.0,0.0,0.0,0.0,0.0,0.0,0.0,0.0,0.0,0.0,0.0,0.0,0.0,0.0,0.0,0.0,0.0,0.0,0.0,0.0,0.0,0.0,0.0,0.0,0.0,0.0,0.0,0.0
0.020624314374869456,0.014564316378569404,0.011493730649784747,0.005236671823254565,0.016129478278636512,0.02521206913765757,-0.004884838204990587,-0.010713179492152234,0.025388785265820446,0.06711519389248317,0.003540179727622139,0.005420694495642669,0.051791330032823005,0.05855280634285053,0.03313982539812183,0.004857461621732831,0.018548236615059336,0.056982867640504316,0.05301493936805852,0.03492622963023806,0.020023582848718052,0.04709097674081095,0.06070321842198799,0.06019021404711587,0.05196199743966993,0.06260753034811295,0.21477336444875014,-0.10348899702167526,0.08361823272384113,0.10877060835483775,0.10831154163025673,0.09066411038766442,0.06743704494006622,0.08210056261063879,0.1061008240984358,0.09282848007912911,0.06451117613014719,0.10123895075625157,0.18720101308395243,0.8125615456422541,0.04184607829848152,0.05133980992338947,0.049132306116398065,0.00752741496872798,-0.030130934870770294,-0.018060037204738602,0.04609903200404659,0.09217182858300112,0.10945929981498938,0.10342891666192675,0.10019886041112185,0.10818571724378953,0.11039469153992047,0.11052104010168749,0.11678307657005478,0.13212757432128705,0.5014068775747652,0.07585571152122725,0.14622952324123942,0.16634418115066474,0.14232779064532358,0.1365577175887616,0.12715348510907726,0.13188434817936037,0.1761107216645892,0.1451178307393109,0.1378223631554045,0.1705352505885715,0.20866630253126775,0.5468645258835432,1.0,0.10838378522760761,0.04104292401948598,0.009547146832406282,-0.09650406370856049,-0.19063595005355918,-0.15564338257138308,-0.04478416984922374,0.05608934646910535,0.09519382037955962,0.10346866310469523,0.10827325857687307,0.11308968600153516,0.13465562382451599,0.18542059060346777,0.15801680168322052,0.16456891202809806,0.17409740513214247,0.16986147547169334,0.14310459998318156,0.09871890419057036,0.12294208526023492,0.21405665715987646,0.46341285349555,-0.010098049885588581,0.09999079173836804,0.08151625167521728,0.07117973085438252,0.05770121086609082,0.07700319196612423,0.08370093446786009,0.07902215230069112,0.09023439335723804,0.10141418019330062,0.08137532141711035,0.0794513554264501,0.07743596738716847,0.07368278703468192,0.0774410538031342,0.06845784211024772,0.09059707711812054,0.0774642938637621,0.07544010887816492,0.06784957809903636,0.07754978771105325,0.07976191707017179,0.0835748202832832,0.3736630686435869,0.03968137452564287,0.08858467531998217,0.08708933560566112,0.05077127841308585,0.05483895619190123,0.03596013069011121,0.03248514841763111,0.07414965147590602,0.05667229150775269,0.08672886298009853,0.20593358155785782,0.4156597786957811,-0.03002041962471809,0.01961386998842582,0.017202306156815426,0.009707975922042287,0.004797487239783839,0.02205612535343475,0.04794846786654693,0.08652205287726304,0.09021570255142276,0.0712187784969215,0.07472286770910173,0.08785966537592131,0.0707761831119871,0.07778872798862282,0.09146488385925139,0.09429317417599463,0.07832024716598017,0.2736914460369554,0.009566854155744181,0.13255959647759263,0.1300759770535989,0.13045800225842727,0.11815693212427222,0.10932797180898005,0.08700505203335356,0.12461506166839419,0.13698279602490068,0.13475426270315619,0.16252151834683756,0.2572448144405093,0.6430823232360052,0.8881889815083176,0.0845968491854229,0.039718240272417084,-0.006792659032585774,-0.10708139974777381,-0.17136957806631875,-0.12945781039260887,-0.0029006883190047282,0.09723137629770227,0.1367302612476673,0.1477467326554573,0.1512988617431766,0.1591207490016573,0.22649039021284667,-0.12156063871371213,0.14726456196517654,0.1936804637913699,0.2152512775107801,0.18489389827132757,0.17732501110747168,0.18646478962227178,0.18986885761168715,0.11155597964648291,0.19644484653063127,0.20393269066910663,0.21589006697239566,0.20200101214043287,0.18977200476384465,0.1511664643579207,0.13634629043888022,0.12860188772508818,0.12412509825098227,0.12398475141319774,0.10895181992044818,0.11439464813669885,0.10570277412582511,0.10361053440478982,0.10761044342297965,0.10393835697059242,0.08870286071528734,0.08255751540617726,0.08566152357165982,0.08310809082085152,0.0766683434679109,0.08199850455418643,0.08855681839632226,0.08344097559041978,0.09261192400622946,0.08538674483182855,0.39466219752499715,0.028821954344848848,0.09602825348942558,0.11579110986753932,0.06304912633170678,0.061783403214547325,0.034379115486095124,0.05482102800750568,0.07448426706460726,0.0807752124220823,0.11432111249425891,0.18514561481044828,0.35519495731493167,0.042173885883329466,-0.19162359286455777,0.06359169625113974,0.07913313389729387,0.08791500910808697,0.10245312676710679,0.12951983577786125,0.1254192327234769,0.09605712060903818,0.09631165770378942,0.0922797820822888,0.08884297886096815,0.05831228830830335,0.05760945913392755,0.07143555040322905,0.06419409707194508,0.06444485059625663,0.0683739366567992,0.060445111526634177,0.05442690756788188,0.06990924277989673,0.2516480520797625,-0.03771337495793067,0.09199134962030116,0.0890810572529848,0.08407366405796428,0.05061575428020462,0.0355572830994195,0.019703263955685543,0.06111390387266013,0.07584733037763094,0.0793234163856554,0.1402615681035703,0.6688149211339816,0.007571332411756753,0.07799792850946,0.07591047790343934,0.07619922637706596,0.03893304778439491,0.03821471278433369,0.06227690139296197,0.08133633876095062,0.10160163050956666,0.11881767171668832,0.11090976430430909,0.10607367751680973,0.12231667228978986,0.1124661765633943,0.11100997969014938,0.11840990327695852,0.1331210917118777,0.12928861693291846,0.2465422963485239,-0.10902136980035385,0.156313658864654,0.16315428724869277,0.1560464177859362,0.13234941733923514,0.11259061680439401,0.10675471001100995,0.128562722072083,0.9663736516507354,0.09258325220575939,0.059280455801745756,0.03139346006213437,-0.06315470219395071,-0.14602132817060737,-0.10731046087511868,-0.020574110427338258,0.0705803971660801,0.12199699023549783,0.114694110643472,0.11194059919534334,0.12535691130727308,0.13902793253004878,0.11941551512613806,0.12825195138009315,0.1325485015405413,0.13349853292643116,0.12352288259111754,0.1322926552720633,0.4608161953777987,0.07060161291402176,0.14286989017696486,0.15151368347543914,0.11860765137213472,0.11787350678007764,0.09731538031890348,0.12007249144792294,0.13875017511236215,0.12896456724496982,0.13544398553521375,0.2644371826981052,0.4724017789458227,-0.048459802614858785,0.08819945176286245,0.06777912577528426,0.058756896374072644,0.062393918472360956,0.06520015489790214,0.08786800483889715,0.09027650475284343,0.10066974841747202,0.11755356725278761,0.09950752459473625,0.08000582365318237,0.09464629945571378,0.0968147138021673,0.08489642901188678,0.09787079545562467,0.09443251653445497,0.0916106921109521,0.09376784521052062,0.10628876975393618,0.09978500656079924,0.09085103197792385,0.10308258315426633,0.1155862337071741,0.21690003937192587,-0.141677328661035,0.11559930868921693,0.1328289555052295,0.12164238186628809,0.0779132212206654,0.0678861176340235,0.07036200047606475,0.07212661263322397,0.0900965134453434,0.11200079084720253,0.12899029069697207,0.42274899179016506,-0.011121425253511893,0.12026384001222053,0.0977681162792736,0.10843131536243829,0.07967705013425162,0.06165586517685676,0.08713151455643951,0.10736381397939006,0.10999769263767296,0.11473616187889453,0.11000977866364314,0.11673983826341766,0.127525361162538,0.10467627296769662,0.10986391261602431,0.157438213913081,-0.15882905102019867,0.09881694876917463,0.14347110361238027,0.14377133384625224,0.12119988099875019,0.11395595248275052,0.08656232966303741,0.11136045677451147,0.13780652845894473,0.12279063529969521,0.1492731896619502,0.0,0.0,0.0,0.0,0.0,0.0,0.0,0.0,0.0,0.0,0.0,0.0,0.0,0.0,0.0,0.0,0.0,0.0,0.0,0.0,0.0,0.0,0.0,0.0,0.0,0.0,0.0,0.0,0.0,0.0,0.0,0.0,0.0,0.0,0.0,0.0,0.0,0.0,0.0,0.0,0.0,0.0,0.0,0.0,0.0,0.0,0.0,0.0,0.0,0.0,0.0,0.0,0.0,0.0,0.0,0.0,0.0,0.0,0.0,0.0,0.0,0.0,0.0,0.0,0.0,0.0,0.0,0.0,0.0,0.0,0.0,0.0,0.0,0.0
0.0937856781113192,0.06254133853042836,0.06297715841360163,0.10696091012541878,0.09935615878661737,0.07081391647233845,0.06665684790956106,0.06459388723094964,0.09120964899931261,0.09388685382722907,0.09159290300067466,0.10446289313520288,0.3308466792373037,-0.051461870189323584,0.11480801456779618,0.11721419785702278,0.1552301111479366,0.1696969211482807,0.15766710684622512,0.15847986319265145,0.1522710065768918,0.13842691629546405,0.12203385433703391,0.12289626657889997,0.13067933782483945,0.12733775095677471,0.1244034672775612,0.18158292625805322,-0.14335509032941623,0.1039683563026273,0.14541729928628191,0.1803287996141187,0.15127657612342724,0.12816340525453562,0.12131490411457316,0.16026067770965005,0.189113516947109,0.12175330734585636,0.15246525874387365,0.23573310951334447,-0.21421300423127296,0.12909486660056177,0.17895025241345147,0.20236209294290894,0.22158455187597056,0.20312595856360208,0.2119464607219148,0.19651580019760911,0.14361846335591483,0.14208882774252285,0.14983264609179292,0.14325869055160662,0.1520900239233036,0.30702515489207,-0.12156815350164026,0.15998442403434276,0.18440922485549394,0.19357577004057896,0.15843188661709975,0.1455737645884582,0.15968406932075913,0.17231558561191784,0.13086265252560403,0.10972162066061647,0.14875723588680426,0.14868190881001944,0.13090208963906538,0.13102836870037224,0.3455036064807703,0.0016605203320169575,0.13187829300940287,0.1589919609027733,0.16799841568546725,0.13960000396478273,0.1275318933849084,0.1207187724978574,0.1280836729515077,0.11836415492751708,0.06609123541735086,0.10924495333359725,0.12815459684371774,0.10262981916994475,0.10981112087578343,0.10497554122304123,0.14624479621703443,-0.10062310385730186,0.08171104037414396,0.14528664199439564,0.15384050241292613,0.13554976119800888,0.11887114825865054,0.11137392977978001,0.10894512995324111,0.1419087133362177,0.12185583317446597,0.11887352831358115,0.12730442503962253,0.35007805548358095,0.33216619372890593,-0.17558377857066512,0.01021767246954667,0.0954139959634316,0.07464016500022774,0.09925166030173402,0.10435292832677645,0.08901662173766309,0.10950821826464362,0.10209886602409746,0.0875875678951953,0.07808167042094012,0.10517307046580911,0.0850853224196085,0.08749157817095993,0.10468533023222852,0.09783972435195772,0.0918624523613896,0.3077722174288328,-0.021212860802859366,0.1124726213785749,0.12970124762267132,0.13724466188999512,0.08272309222363279,0.09813920675137117,0.11344948245008019,0.13248464525933265,0.1325808770298464,0.1303707598411748,0.1888389906935724,0.5818467178826623,0.16402741075384597,0.18451576212049134,0.07884648566691242,0.07826048296377855,0.05462405343419258,0.06395259855398291,0.11969332268841987,0.5461183907742098,0.9215093511610554,0.11044307755599984,0.024345899480371126,-0.04484907195635168,-0.10038495552778799,0.01668738645107655,0.7010155509667847,0.3570213803006476,0.0480531202765368,-0.018480454071709732,-0.1058944811696858,-0.07626111075278531,0.011451714844230543,0.10552591962713724,0.12910446462762357,0.1570977493520859,0.16811202466244507,0.1620133546317087,0.1604882805595226,0.16115833954578956,0.1673449102962252,0.16194904565472643,0.16931744755801628,0.39682406337934484,0.071424670998284,0.18685217943552118,0.20037539014494335,0.1441861404387029,0.1511710683860257,0.14600240363753325,0.17395295019654822,0.18637433505017406,0.19110976339524371,0.20936531345387954,0.23716047559352368,0.4031704839246697,-0.3252265681674894,0.14287779530212644,0.15852009245381493,0.14842473240195359,0.16008232276219797,0.12229718903116094,0.13891066449181372,0.13269793256245227,0.13927819828480562,0.14179604202424853,0.11568546031452064,0.10492764904516692,0.12425237999437744,0.12306512671425167,0.10735664265029975,0.10442439121308326,0.38921622894161717,0.05047826256711448,0.1316681151906269,0.1360412798344402,0.12458117597744145,0.08846101661135705,0.05030038726207313,0.03580238612653489,0.116648825000568,0.10869325341038535,0.09726088533614541,0.25211134041476757,1.0,0.13052566746483402,-0.08073152812736883,-0.000627532497650794,0.025063070465610234,0.041854225749782537,0.034375005541223594,0.037905896910604045,0.044131306071221774,0.04034315019541093,0.04579411373471837,0.04328993879652899,0.04586824260309062,0.05011866605396835,0.03912663603858568,0.053404308638352785,0.061271061902753624,0.07081033541734583,0.03146339127307613,0.007618550260729312,0.06137437291717461,0.07731506418971064,0.04160813000788858,0.026911608832848172,0.015327198600538782,0.04016880593123229,0.05998771593043658,0.05571704973269836,0.08445397112961833,0.27053492912810634,0.3255132495523429,-0.03134920700725122,0.014245441997660582,0.023437625347037087,0.036268527133984346,0.005400489936406282,0.03713270471583634,0.0422135539824128,0.06362748583761983,0.0583350841137413,0.05796570620376657,0.06073890558257805,0.06286470250291135,0.057001592641323554,0.06772201869621115,0.05773213247071718,0.048566524659726135,0.05802137005366024,0.05697910369866715,0.05589929272954868,0.052391406984527086,0.06663358004078514,0.06446065870945367,0.17585766923385507,-0.20957351170044555,0.07178985010049331,0.11294826471029462,0.07820242477832912,0.07068735118379989,0.03980719088663465,0.02538169012291901,0.06769766199845961,0.07265611829057393,0.06638524977184188,0.12136566175929923,0.46586408053522066,0.209792407345649,0.052371738471083056,0.026407486815364038,0.021768162933237363,0.013084180598608927,-0.0011835940751367723,0.040039270940916714,0.07101135336603664,0.07715664737468707,0.09020484331922467,0.07815017625936635,0.06571251115771806,0.07270503021817763,0.08450308984746999,0.08222956318717427,0.07261307248448566,0.06154075020928015,0.0772814026388756,0.07567731299561715,0.06051185999855052,0.08266844725398831,0.08154053075822086,0.07553581778429547,0.05217533154946877,0.2615364298888251,-0.020599929783535132,0.07950184587105139,0.09074130458367635,0.09712949230249804,0.055300315431747744,0.03431137159012892,0.025700568173343565,0.07946060579761448,0.09540479455081735,0.09193813403231392,0.13433191713845938,0.0015631567791602173,-0.025454770113974443,-0.06672264133846313,-0.024586357709816074,0.02521214107867422,0.07188321190109197,0.08884349796517806,0.08782508731317168,0.06836398363652992,0.07658216227912662,0.08136220258679949,0.0969110938276955,0.09397968924785235,0.0892038694574909,0.37957858846457454,0.02393715788105834,0.11469893872434729,0.12614134160224968,0.12335221453397932,0.09642259700036424,0.06815152510589965,0.08357940994375761,0.0948538598373916,0.06785968283459042,0.07282168941071397,0.09510886230520868,0.10906234477941053,0.08855553864488394,0.07367287921012944,0.07090194040095357,0.11920490821096168,-0.17822856933915102,0.030745598540503228,0.10285063041236989,0.13094029862546516,0.10436846320883172,0.09309169818794112,0.08968682179618212,0.08406677114741011,0.06777946559058802,0.051857392399950665,0.07069599522743258,0.07243317228372831,0.05352176292781765,0.0598977037445137,0.04446402192618142,0.2892655490064355,-0.02728844798625089,0.08180926545195706,0.08616921472779968,0.08779919269664617,0.07586184519132777,0.06120051706357948,0.053209649549143964,0.03324742355151278,0.05734084562405915,0.03624378606500675,0.04518742720202039,0.05819297501426446,0.02890861606425306,0.02396714189832224,0.00795032575973042,0.022585422053319364,0.030211168088976458,0.021061962807521675,0.0,0.0,0.0,0.0,0.0,0.0,0.0,0.0,0.0,0.0,0.0,0.0,0.0,0.0,0.0,0.0,0.0,0.0,0.0,0.0,0.0,0.0,0.0,0.0,0.0,0.0,0.0,0.0,0.0,0.0,0.0,0.0,0.0,0.0,0.0,0.0,0.0,0.0,0.0,0.0,0.0,0.0,0.0,0.0,0.0,0.0,0.0,0.0,0.0,0.0,0.0,0.0,0.0,0.0,0.0,0.0,0.0,0.0,0.0,0.0,0.0,0.0,0.0,0.0,0.0,0.0,0.0,0.0,0.0,0.0,0.0,0.0,0.0,0.0,0.0,0.0,0.0,0.0,0.0,0.0,0.0,0.0,0.0,0.0,0.0,0.0,0.0
0.2372714243547054,-0.06002536122147518,0.07257896434968286,0.07986612485711796,0.09677779117763959,0.06595751796826946,0.05977133015574508,0.04030972626356225,0.05813951719691916,0.09659363623611288,0.051553930508254804,0.08693887966753788,0.10230542999064224,0.07333417258418137,0.04939295406869583,0.0676249496527677,0.05541079885582883,0.056176213464849335,0.3185525270317393,-0.005169825289953171,0.08308253015255805,0.08232466135926354,0.11048007634256606,0.10232101199598535,0.07729169719119579,0.0786860661374543,0.11231264820111282,0.10571838358048866,0.07689240906527181,0.09451572943725692,0.11293324759485111,0.08563454737248936,0.10925269191766239,0.15193688945057662,-0.21553958680706503,0.1544028613145547,0.12068381290187288,0.12321790743808268,0.11555427312275757,0.12518564305254257,0.13147631542519242,0.13939261474773884,0.13222984974089327,0.12337322844835844,0.13890176807245488,0.1368053463879675,0.1433326385195884,0.138014275138518,0.4393695440356266,0.09052882904754486,0.17342918482677688,0.1850363448134919,0.2063035517986442,0.182775440105193,0.1625344484612405,0.15852791116823367,0.1946016425441678,0.18582144900127148,0.16239998552623208,0.21408903570613863,0.23637570732252114,0.599656002672153,-0.15132815435738106,-0.15311007023927664,0.13859280985534927,0.14335548399300346,0.16521917338870173,0.22103870571212794,0.2433802190772654,0.2222544302231421,0.18370261834707166,0.1615867967155274,0.14458942332892344,0.14054070952640443,0.136411889456704,0.11361699240980667,0.1015689957712636,0.0989058353675543,0.10341009269486781,0.09546772874270051,0.08995724313581738,0.44113071286144595,0.03991355142423163,0.10749774353373347,0.11456318386737148,0.12445429793724432,0.09464220122366822,0.06739815828635934,0.08973735846825583,0.12793440357606475,0.11483894915092506,0.12511904298873522,0.1557366131684569,0.5750410177531133,0.30344185916331146,0.05259119010824873,0.03144707035228422,0.03291351226298245,0.008425651688985441,-0.028989850815843144,0.036189716772733825,0.07872230790343537,0.10582415798811262,0.11693200580983829,0.13328064640845497,0.12622399774119603,0.11793593491875005,0.13165826003875356,0.1302800236501956,0.12511667140834656,0.12692734735287955,0.13133978714886896,0.13603272338960087,0.30191716835554716,-0.06024137556031526,0.1254081074898585,0.1344156580457764,0.12265160026485383,0.11271501915343661,0.09168551499188503,0.07267219996576949,0.12635763862432722,0.1392473568779524,0.13423700559330468,0.18854703354701913,0.2845947431006365,0.8393149624061584,0.8804300732290451,0.07734877502058667,-0.004603357288284434,-0.04877481533803424,-0.16170598743094086,-0.23797344220860278,-0.15345999053804515,-0.0011141007749313982,0.2016132820844381,0.21206201230619828,0.20896751106504452,0.1942391437217676,0.19098542363776147,0.21338074720637695,0.4178877533877544,0.07564625164056285,0.21497365503543317,0.24297063886286918,0.22825975626688152,0.19047964192536557,0.17303252151126905,0.19931626054134033,0.196600372086966,0.17319281945370607,0.16954281079598987,0.246187580710981,0.49542106301426536,0.08348076295670809,0.120522616468853,0.12788446432516176,0.14635101153646637,0.14571132307938897,0.1654664630594739,0.16540233226272416,0.12915422108536076,0.13601391462760273,0.1569635025191911,0.13571479143624135,0.13061371692863435,0.12640325358027918,0.12364038288598894,0.12685649048157058,0.11942489328740102,0.10570475515789622,0.10886126550173932,0.11483052076506399,0.10912064984500927,0.12464044510131493,0.19109247897028864,0.06680768389790047,0.11615945268761318,0.13162854537612745,0.12180033271051058,0.09790955139996685,0.07157501007059497,0.10104690357889178,0.13340228348098526,0.10486114573398539,0.12902346500271936,0.19519401267007264,0.6133725739970606,0.0026716101663487816,0.039687197480428114,0.03458661569328869,-0.009609977465629114,-0.07911153148400522,-0.10665543524022629,-0.05377988857503194,0.038913741038009216,0.08988204856450707,0.10242494807657786,0.11292446322089555,0.09693977808376945,0.1016656476052237,0.1202700441496697,0.09757886300404402,0.36536365971865037,0.04219736987898404,0.1191495861827607,0.12639978912767874,0.11622435441774273,0.10375594596755987,0.08138773005872743,0.07583444058146296,0.12073466101930365,0.1109422687799627,0.09928616809869525,0.1294051087817529,0.11585552491009721,0.08859747906734193,0.09306317594531523,-0.10455122720543811,0.05601686183170032,0.11131855905678631,0.12419093911820404,0.13092753670001464,0.11336754441216473,0.10434109308065886,0.10137258684711367,0.1177150834789689,0.1001568196414171,0.09310891205628809,0.10093241882065518,0.0848181849746771,0.09020167203190736,0.08639383789092643,0.34438051413715154,-0.004277779994048664,0.10820504224660278,0.10424970123623112,0.10357465446240312,0.10211606707922896,0.1041870819243476,0.12482865464689899,0.10671846497206809,0.11097254903307427,0.09330383772192202,0.08764316048139602,0.09188910087596937,0.2692671145293063,-0.1319827380211769,0.09910578788987896,0.1444051152336061,0.13663291715546938,0.09583737800054895,0.07908085176698612,0.10542728699029924,0.10990882728778081,0.07487284210682373,0.07725491495960515,0.10307733127227262,0.10168907597306052,0.08338917301224989,0.08647236029161455,0.0691765854100044,0.060392425622328126,0.07516159923728293,0.0783460339089042,0.1962022979257381,-0.15910944372733404,0.07211562422200417,0.09163133876463689,0.09148808731746792,0.07263486733089823,0.05504055311515776,0.04730419755078762,0.06563271203541719,0.08101139236851247,0.05134605495950335,0.06413683834630399,0.0842986383315081,0.05721278784226896,0.039432983738126315,0.04331707351998817,0.04861031410607282,0.04236668327951675,0.04305552411018345,0.3335499857667851,0.01011059576562414,0.061412620913072015,0.07743145806165586,0.08462681244295875,0.05560267355148324,0.02887127177165135,0.04585103752502204,0.036872956099917684,0.06391414228021002,0.03174525782115962,0.060258762956587254,0.04614654185774716,0.028987767435875996,0.02993944010921529,0.23792203811580237,-0.06838464765042897,0.03151614394105357,0.05925688186431484,0.0761344637414371,0.06962949689652606,0.06586126912128602,0.08090427385643766,0.04539076902136735,0.05429684483099323,0.04723001582614366,0.03628850702478384,0.048914801707528544,0.04617237212194581,0.05396455185860389,0.03472209210598227,0.05538045706926421,0.05157051718671523,0.04863900463657983,0.05402335987554523,0.3611924141780226,-0.01040573080464207,0.07813885417741083,0.1157551431360119,0.10304008322107475,0.0805541159990973,0.07475220082713016,0.08973465869863671,0.08968010597836622,0.0859542363514842,0.09295700012607232,0.11961690033264999,0.1236994130660674,0.5480947967976261,-0.06881979330659262,0.06504675015064378,0.10377856084649935,0.10708381385042844,0.11385465342000974,0.11788953628930228,0.12307353844682846,0.2150999550855998,-0.13052795524287933,0.13302805763939224,0.16404904621033256,0.16744669219918393,0.157928514089928,0.16473358338476707,0.15042215608262963,0.1592342461940369,0.17830537039449187,0.15010452032677668,0.1633640297575808,0.19649754299112349,0.2306533962648259,0.6387978299084891,1.0,0.1520457388191169,0.1071455598303612,0.07857085379403005,-0.03499161226872612,-0.12306724743464388,-0.07231440085138166,0.026953094576877234,0.13375291802111414,0.1991952838970649,0.1798180130382993,0.1987247679809686,0.23040325068560483,0.24250139760587233,0.27908926897328074,0.023191299406815358,0.0,0.0,0.0,0.0,0.0,0.0,0.0,0.0,0.0,0.0,0.0,0.0,0.0,0.0,0.0,0.0,0.0,0.0,0.0,0.0,0.0,0.0,0.0,0.0,0.0,0.0,0.0,0.0,0.0,0.0,0.0,0.0,0.0,0.0,0.0,0.0,0.0,0.0,0.0,0.0,0.0,0.0,0.0,0.0,0.0,0.0,0.0,0.0,0.0,0.0,0.0,0.0,0.0,0.0,0.0,0.0,0.0,0.0,0.0,0.0,0.0,0.0,0.0,0.0,0.0,0.0,0.0,0.0,0.0,0.0,0.0,0.0,0.0,0.0,0.0,0.0,0.0,0.0,0.0,0.0,0.0,0.0,0.0,0.0
0.03784340136062293,0.07276861509322159,0.09729517114589531,0.08348228380628586,0.09331282772377783,0.1102382178754824,0.10916457424205503,0.09461049536601754,0.07615763600109474,0.07491591462279404,0.14246690258807332,0.6788309116459543,0.08272925869775677,0.04512540330463294,-0.03411668611917488,-0.029229746612141082,-0.04614827792013727,-0.06697180679000914,-0.034914245977690474,0.01775171116123545,0.05816894860254871,0.07283045505101421,0.0734565170724106,0.07276169319396665,0.0722027022811614,0.08765812304165727,0.0780406502859983,0.0777192529888405,0.07300350133031008,0.07732901636261832,0.09011572706185172,0.07985903476512528,0.06446922079602589,0.08599869830983498,0.35522601160951395,-0.005835583791845046,0.09999187064772583,0.12656718485536442,0.08004297637558451,0.07869384638647609,0.06881236962144562,0.0870217707749479,0.09946139859422835,0.10780580242150621,0.10586236684618579,0.19612453823237203,0.5817243240599966,0.10422633280277906,0.07591358182667175,0.037259962755292315,0.06982103357397394,0.03827628241849304,0.034714832529533585,0.05949303963079696,0.08710654691221247,0.09087522105494193,0.10967405525597071,0.12170478539200132,0.11000614734147157,0.11548600599148126,0.11575665077209586,0.12776313091282887,0.1262230927541363,0.112075768640356,0.16026972881653925,0.13516139140957303,0.11820831040986172,0.09777846589188907,0.11273963503224704,0.16556446649516404,0.16568135787017046,0.1681868588696192,0.23102496694332825,0.45603845981318814,1.0,0.15740468959460407,0.05982270422472508,-0.005835853090870794,-0.048051913255150035,-0.17847674421005053,-0.21420912707132458,-0.05031940113594967,0.0787454756840509,0.12607744401131854,0.1390776386262518,0.15375345934539672,0.1604487708253309,0.15475111391931015,0.16262883944144707,0.14499128045858753,0.15660443745405017,0.1617669103278215,0.1595887799419956,0.46511191666630175,0.07241021228059946,0.1701746074633847,0.18618286275159215,0.17908244837911022,0.13798579716152018,0.1326151824558611,0.13625769538008273,0.18269172399083547,0.1613371063520426,0.16035914690766118,0.2499284719024664,0.7553842797181924,-0.09028817856788592,0.10035198651732859,0.07655618032272642,0.07184365268306546,0.06112788105349555,0.05747984185665106,0.08522767825520833,0.11182414459386349,0.1419300018830098,0.13264376147800655,0.11493756190311252,0.10938441000089119,0.10915903406324186,0.09400802792309776,0.10850962994791623,0.3126646084029674,-0.08955295932567889,0.11576297323588501,0.15185319970448935,0.1322476782349249,0.09895222898435625,0.09410764306905083,0.08136838531562406,0.09925742294535343,0.09379615775036951,0.07348672747799506,0.11202467708389593,0.1157802633026647,0.09045116193238364,0.09083332530756619,0.08324485010757468,0.0923704344347278,0.08525067629682284,0.08335943371617112,0.3081372080762843,-0.012346129368969469,0.11468827156465103,0.13052372854883404,0.11884228315787712,0.09374600711121657,0.07128043941216354,0.0877450584706401,0.08241675446246088,0.06342792435545885,0.06852358278683733,0.10366528234380668,0.0909935350383405,0.08859700702529115,0.08285968783032635,0.07228160029015132,0.071864270286059,0.07960962689100136,0.19560507372243555,-0.1925835270198911,0.09675141527779979,0.12725818223956245,0.13521533921861492,0.11588240060062709,0.11741476165811318,0.08642393317474856,0.0700695078235532,0.10045547225280126,0.07342031516715028,0.28152620021913066,-0.012203875330551698,0.1277323035717761,0.13294830721987036,0.14350924469560164,0.1449040661022091,0.125830966000441,0.10790082765250911,0.10946873242968506,0.13776738201724137,0.10196685207844602,0.08439363471309684,0.13161202282107778,0.08940502453545243,0.07124773674988108,0.15290905847185032,-0.1330494178841137,0.08403518379462593,0.11389263083909848,0.13371059387125242,0.13589991053776257,0.1056370327409194,0.11643950408557105,0.1231009565848934,0.11622134015264518,0.09105669464024024,0.10014447680315715,0.1224186156892352,0.08839184517288094,0.08794411891243642,0.09290972618713092,0.08203975862012343,0.3430097780986221,-0.02107146454127354,0.10821667605975822,0.1160077864845172,0.13020203560950874,0.1242591502322852,0.10816847795793288,0.10729039412777014,0.11655791030386088,0.11417553059079678,0.09313108581403405,0.11291682335160919,0.11280918734893852,0.11861739927122843,0.11012559090662138,0.10034718930494958,0.09293644927148265,0.1665065182734882,-0.21564798951213976,0.08717530281967183,0.13401629392834752,0.1536065164740246,0.12741933728096053,0.11080169195991729,0.11985696326061299,0.10992475551534359,0.11171036476115727,0.07472006193613234,0.09177758128459738,0.10655607710703074,0.09708840147589089,0.08101147530740654,0.0880329996393324,0.09414992030473386,0.10026985655013046,0.41202029356748787,0.028799733331372052,0.12034582884882478,0.1404679498225005,0.13726994224603908,0.12264115308310775,0.10919361466682802,0.12409660197287381,0.11933339594889844,0.10380696921085668,0.08325494643625328,0.1142312965385617,0.12710641789627386,0.10455895517296705,0.11114355396229152,0.09101815655618196,0.10245203822582313,0.1580963901123724,-0.13796749802957217,0.09034483047843635,0.15497522874695444,0.16493031120880017,0.13336916463246234,0.1295113593695571,0.1375344111927338,0.11968798308096416,0.12963715134971726,0.13469389490028202,0.10008985075566908,0.16968358636872177,-0.09281095002094927,0.08331026555466284,0.12826185704049092,0.16990484422495442,0.15692947289840312,0.11456690936039682,0.1250582688794192,0.13465021068784974,0.12801789130693408,0.10611165768793761,0.11378083789912757,0.13393552599760417,0.11218639286719403,0.10757716742451874,0.12684220021263798,0.32853294344710493,0.07314036597212922,0.13945968157247354,0.17316915100385205,0.17448890157589225,0.15747267888119396,0.17071435565768128,0.17030585869269912,0.1472861573836777,0.12678226186405822,0.1270032037720235,0.1443205970623606,0.13260733217355686,0.13914095117738196,0.1911247679022482,-0.2105819466799047,0.12874442465076957,0.1709346395580151,0.1717951853583374,0.15804891338454993,0.16111973216818357,0.15352117561754844,0.14411540092991204,0.1330833370669742,0.1155415903792675,0.1116980583089837,0.12760910133455336,0.10725618579402116,0.12649984652890972,0.09979776726290705,0.16390817066421118,-0.1883928925674801,0.09299869860731157,0.12635036507859146,0.11476058781654787,0.10639003594248707,0.11042715340517846,0.08999011583942891,0.07687164933163051,0.09350540840117533,0.06060051520278064,0.060629625060862044,0.0879945834900638,0.08596359445891052,0.06996075094913207,0.20899057424807096,0.01198054210850672,0.08430777064296699,0.08486263227661922,0.07983856651371832,0.08171823839805864,0.07395862354943473,0.05959253614625322,0.08026238608384456,0.060604909721120516,0.03719821564473525,0.05950516816467828,0.05514552165446197,0.05029812969720701,0.4543929491045622,-0.029664621759339368,0.06037517696260076,0.06592946416260081,0.05942738979782387,0.05262497123403691,0.05854382920856738,0.06190340282195652,0.0684458290435248,0.06736580725000918,0.05934122063071668,0.08040440831986147,0.081365182082355,0.06819004524693988,0.06750639904503332,0.06335279379245919,0.05075365025788477,0.27474842287978296,-0.05277934555764611,0.06402280562665805,0.042841313612842796,0.02735623710610422,0.0,0.0,0.0,0.0,0.0,0.0,0.0,0.0,0.0,0.0,0.0,0.0,0.0,0.0,0.0,0.0,0.0,0.0,0.0,0.0,0.0,0.0,0.0,0.0,0.0,0.0,0.0,0.0,0.0,0.0,0.0,0.0,0.0,0.0,0.0,0.0,0.0,0.0,0.0,0.0,0.0,0.0,0.0,0.0,0.0,0.0,0.0,0.0,0.0,0.0,0.0,0.0,0.0,0.0,0.0,0.0,0.0,0.0,0.0,0.0,0.0,0.0,0.0,0.0,0.0,0.0,0.0,0.0,0.0,0.0,0.0,0.0,0.0,0.0,0.0,0.0,0.0,0.0,0.0,0.0,0.0,0.0,0.0,0.0,0.0,0.0,0.0,0.0,0.0,0.0,0.0,0.0,0.0
0.10881992523156386,0.1231410130507085,0.09612433230866586,0.06257240458641267,0.07370489190601189,0.05693887847473532,0.03769422611559385,0.2591752811569907,-0.06746231443265117,0.06318911184058451,0.07094487655661813,0.09544052424174305,0.0839067774470278,0.06122252807812217,0.04606775892202506,0.05825295218541888,0.054723948473116076,0.02086396218021269,0.04663450498448732,0.07553672695710849,0.2964563455239778,-0.029568179736318895,0.0637967529938625,0.10127802746577555,0.13016000946726705,0.11111523095291372,0.10348882619932304,0.10623198214034833,0.08755421045959162,0.07480143285573604,0.0724098508041401,0.0811715850574805,0.0820264749730686,0.08439350079173887,0.07381867138296391,0.05666277178179786,0.24446459952814675,-0.0712942176482615,0.11437216071160232,0.13437190079956776,0.13302838896132804,0.12571062730510638,0.1237244292179567,0.1056235007811139,0.13075070248976564,0.14607980215192723,0.12015298231023754,0.15532368310712194,0.3472855557850135,0.2140154929790979,-0.12525785936640557,-0.17056051446241932,0.13448259179135497,0.16958031982843905,0.2102063660627144,0.2700311574165759,0.28164112494012405,0.23717710756672558,0.18716160684412808,0.1455951079075447,0.13187989762786084,0.11993402348671514,0.11483484823645021,0.0962788330102755,0.1108050362369902,0.10967119842639966,0.11453762087558653,0.2909695309431489,0.009449648974821664,0.12499749605630286,0.12934177252079979,0.12618575516557476,0.10435060832621497,0.0898059212328369,0.08125578352634218,0.11576746054635335,0.13139950474039014,0.11537898953422036,0.1743370192386007,0.6058427294967055,0.22460139613458702,0.044941434682374624,0.04394829266298669,0.02887695460267029,-0.0001107672262030802,0.002169607927261462,0.04325093527732746,0.10088818017077314,0.13193713019390463,0.11653928612209319,0.12965562701986108,0.14275690219905768,0.14243250147827002,0.12595093091987133,0.1255511925547994,0.13988254617911647,0.13861149685467367,0.13751558694021637,0.1377549571888571,0.222995982953413,-0.14248390912938147,0.14073639242399663,0.17232477357768405,0.15473510080612501,0.17193708817804543,0.21358211834866203,0.2661377061227308,0.7294425430101962,0.6883328007297195,0.11423442286230871,0.05794473282827791,0.011549760701174508,-0.07438593231695818,-0.13035385344061137,-0.08306909144618613,0.02064897195505349,0.11698488194332135,0.14719076450663415,0.13833373611054273,0.1629218069941426,0.17631921891012978,0.16132190358417287,0.16283545205423652,0.16583195553253025,0.25223879503430013,-0.10330193016111995,0.168453945437803,0.21447475932665844,0.19208180907286876,0.17202587411308817,0.1814579379485047,0.16552378201011975,0.16548675069181537,0.18709369071454585,0.1700850836236046,0.1880962268672138,0.37142748914679646,0.47189349882521686,0.08374812294917666,0.09061246613331428,0.09641228677114924,0.08736892351239071,0.059629192618498354,0.08342817672050018,0.11797230969818218,0.13624668311109975,0.15596543971593368,0.13511875625159236,0.120987785001792,0.11587207147931913,0.1185106129153848,0.11093103431353045,0.0947191156658855,0.08762641325397573,0.09622159949913182,0.14315547626232494,-0.1581894750532753,0.05272136833810433,0.1123630896876912,0.12004354444852651,0.07233424955695238,0.08416376745451494,0.08454749305044588,0.11407321296363648,0.12185868801178677,0.09329064905577535,0.15774445545319862,0.36062221890738005,0.8138752620646114,0.05424099784988544,0.03989337562690214,-0.00993057093758721,-0.04581522012859965,-0.059262414424804705,-0.058271028294495486,0.0035281226505720943,0.059345441935011956,0.0965024542517816,0.09469792064457687,0.07815035227167773,0.10022744052560771,0.11939258469984647,0.1040346426238578,0.08394042740417024,0.09186983170728147,0.09725721868428922,0.0821847614253531,0.09352511557146465,0.10854316306880282,0.369404984620541,0.021143461683867434,0.11247980161549632,0.11231601394252852,0.09905772774782091,0.07593238347378273,0.06442734153811322,0.08996646121667455,0.08868152427673165,0.09441383698855843,0.11914202192224889,0.1813777726548122,0.44362142484351397,0.09822502384439027,0.10770975363688869,0.09924061838965313,0.10594126984827475,0.11398549311829542,0.11771347244384722,0.10723477181689574,0.12639257029353002,0.1278111978105532,0.13053870694788733,0.34816294448578033,0.06403696822322281,0.15925654902980943,0.16318570952813422,0.13846718879284028,0.13957598112514358,0.1308569993908018,0.10429637158958556,0.1539033594690892,0.1884021227296675,0.17167423252338165,0.2224787942419138,0.4228438159465717,1.0,0.19929265314149447,0.07130646195363012,0.019828182110114993,-0.04538313403570653,-0.16305405901805148,-0.1904753885556108,-0.06696865185895126,0.0662511069632404,0.10960560209036412,0.1475862281065814,0.15658719900947077,0.14571158793190742,0.1684562726387406,0.17101652181955374,0.1674350938258584,0.1637544898271118,0.1591477772503053,0.29108053319193605,-0.085499889399737,0.168847300494893,0.1984950037692484,0.218562471188411,0.1605870625325531,0.15860299843898507,0.16927475477095053,0.1929067315895649,0.18008892084377612,0.16504807765893384,0.20257396473101696,0.4871309436081765,0.2062209772246884,0.052655164894327956,0.10287079630424709,0.12266842995160816,0.12180893316978211,0.09166649962738363,0.1176390998816475,0.12911496437494638,0.13853311945485483,0.1448879245646726,0.1435712214532131,0.13198444837618023,0.1266682564110173,0.13289646307547104,0.1376399555960828,0.12778519334433988,0.11396486367217133,0.11233939760841376,0.1232792605908812,0.15854617505699303,-0.1845599214138119,0.08064318014904008,0.13663405414742955,0.1341116976061168,0.09745925824380701,0.08665864664766962,0.0923770951421416,0.1066216167229745,0.10024851087634652,0.10563774127939304,0.14733689501305508,0.29843390548925214,0.3798882174002506,0.006139187706631726,0.06847124673433365,0.052409990615277756,0.06764344531455176,0.04925462421016924,0.05675669271171332,0.077919241178859,0.0856016958350326,0.10212536492781343,0.0965795053015206,0.10368146573848182,0.09184940257673312,0.09559025486191622,0.43495984016284733,0.04435790406345383,0.12988656853406885,0.13141325554537017,0.12058997674655465,0.10708319087149375,0.08028801749399994,0.08425464150402075,0.12429228644557276,0.1219045001341974,0.12402985964590987,0.22158210323812066,0.8682953981686938,-0.0015319223655611083,0.04607875514106163,-0.005023371261563109,-0.04931400916565856,-0.10682968472411662,-0.10717967835468181,-0.04621994951550896,0.03455268624558095,0.10378117238083653,0.09605846854844972,0.07409309415104876,0.07948471836120966,0.10261133743787218,0.09971697581312015,0.0780151571922945,0.0674187807164089,0.07313016048386282,0.07434274625435837,0.06352611672090881,0.3565179794380311,0.00751180368088056,0.07440291614563808,0.07991339154287035,0.08058890722651413,0.07308392945367621,0.04324704644987912,0.06730716023890673,0.09404698494098503,0.08137910577258331,0.0911659833217526,0.15486356696593145,0.643587826831666,0.1649417901324459,0.07731442788157201,0.02789194408255721,0.014870569755924472,-0.02151785749366074,-0.015522160319842151,0.0008171451123308942,0.03382464197135777,0.055063109640769554,0.0,0.0,0.0,0.0,0.0,0.0,0.0,0.0,0.0,0.0,0.0,0.0,0.0,0.0,0.0,0.0,0.0,0.0,0.0,0.0,0.0,0.0,0.0,0.0,0.0,0.0,0.0,0.0,0.0,0.0,0.0,0.0,0.0,0.0,0.0,0.0,0.0,0.0,0.0,0.0,0.0,0.0,0.0,0.0,0.0,0.0,0.0,0.0,0.0,0.0,0.0,0.0,0.0,0.0,0.0,0.0,0.0,0.0,0.0,0.0,0.0,0.0,0.0,0.0,0.0,0.0,0.0,0.0,0.0,0.0,0.0,0.0,0.0,0.0,0.0,0.0,0.0,0.0,0.0,0.0,0.0,0.0,0.0,0.0,0.0,0.0,0.0,0.0,0.0,0.0,0.0,0.0,0.0,0.0,0.0,0.0,0.0,0.0,0.0
0.12794467383761124,0.11483183769513003,0.10131489801098904,0.11003144404038995,0.12448256808940297,0.10521620397739642,0.10405214467192855,0.11336598783075959,0.11916704838451257,0.10459499839290708,0.17306596124533144,-0.18338663529892102,0.1100583303579487,0.13337979595808908,0.13615292887385338,0.11614597764986725,0.0926894096883485,0.08560623410646902,0.10395996141982035,0.1358335555617017,0.1195489230759201,0.1517644253625228,0.4085305396546194,0.39426421484297297,0.055352555450323596,0.06522249524454247,0.051522474212137175,0.03742963609517597,0.014964494388320128,0.02375610599684669,0.08913290211070346,0.10659750427495226,0.13070649140447266,0.11748107913657718,0.10946240394379197,0.09660623057571809,0.09921722146849006,0.11101577333284468,0.10501064412102051,0.09773929976916972,0.09484515806636293,0.10322636887331472,0.09409647456255073,0.42034527348131384,0.03533576645837943,0.10816248404150887,0.11964784710471812,0.10739380495545603,0.14854116285515342,0.3249372669761351,0.8460129459924522,-0.02233263814465956,0.010884985693959367,-0.008810544120568635,-0.03880206069738264,-0.07793867480215165,-0.049662906296834154,-0.010732248159009626,0.026078080803772427,0.09560261190608746,0.08949091989098822,0.0825646749940897,0.10521925067094043,0.10917416298632367,0.10559207113754975,0.293738886402637,-0.14290741442596913,0.13797490981556107,0.17996365710762824,0.17543191417920867,0.14510042791343528,0.14093509929512477,0.16200251429736648,0.1562631372337855,0.11959915815651206,0.13105036168357237,0.16385875541797487,0.1527573117203478,0.14056165764736295,0.12938164013478307,0.11249502862088594,0.10290384341908654,0.10249187270793639,0.119911616431644,0.29332694774772716,-0.09699742537742924,0.13718213510146682,0.15375406038894437,0.13396965622568077,0.1121289710967934,0.11002400527192907,0.09825112276561718,0.09048710740386799,0.10166347252511036,0.09067463760258018,0.11665285798174355,0.13001885126135926,0.08872407638404053,0.09955266183561114,0.2922409008113707,-0.02152071750465151,0.09358489830914786,0.12228996943541488,0.14026625499387413,0.10259405029766369,0.10426523565061316,0.1018382593981388,0.07688580529391369,0.0843656335167411,0.059182219217190364,0.06149271664174096,0.07156814810349829,0.03686417123088859,0.031299578190276414,0.018602525119774848,0.3609439468817332,-0.040313312777674075,0.02337721542684735,0.031813027780730564,0.03605144107499501,0.01134324450932082,-0.0016549850969375995,-0.0037538422986434896,0.008719166887236285,0.0355367428152306,0.016041628126226712,0.01801236993455512,0.01723768457523391,0.015193394752935485,0.013713871489230988,-0.010605493461441262,0.009475494262892088,0.024372846493138485,0.011086310377163356,0.0333602321319856,0.06944940237786025,-0.016213181138114773,0.03951704318525709,0.0688868192628797,0.08054604064543767,0.03679074665914543,0.01167605156763184,0.02985498259646194,0.054340203018263596,0.017167171448628733,0.027267544467807853,-0.12269791140907768,0.08486625684379077,0.1094160511077306,0.1250311297579661,0.11965929591643948,0.09702764577607233,0.08516016495713549,0.0646061113225084,0.028063060796109637,0.020185440205033885,0.026408013398289576,0.011499129938353708,-0.001584544191563388,0.008858378728161236,-0.005135315676825682,-0.05449987341588149,0.02838610160816311,0.05359058134549445,0.026457883870189453,0.01863461344326174,0.030309316885048204,0.022220652276474163,0.006929812146127932,0.008743157963087781,0.005568677443692103,0.027405976461415307,0.011995906596559327,0.02192881950512979,0.02767076835324037,0.011746781898933556,0.016842688785251195,0.03839416286820604,0.3143633778981881,-0.03102714008957888,0.056614469842718625,0.0939479167526172,0.08981365563126208,0.05233440271991137,0.0448621389848885,0.05933548788253043,0.07128531994802853,0.07762579140846032,0.07509138481211788,0.10085223503421836,0.0827394067354316,0.05577034804217961,0.08338387791702492,0.05638085155420315,0.05626560534246091,0.07716986244904869,0.08157556963370428,0.4787780519112512,0.029608723495105193,0.13305685390784153,0.1257390134480694,0.12703574393421876,0.106103930144641,0.10248184331484263,0.08671491123248537,0.10013353473013893,0.1358313401233048,0.10580522558258346,0.11176906334658047,0.12269660040907508,0.10913005087884689,0.1101550351784838,0.11043384192385497,0.1912802080937085,0.04722000469309968,0.1293624642539342,0.14810184213313124,0.1393822189256038,0.12838789956276528,0.12474672040390587,0.10876750507286972,0.09424595037834646,0.07498333562921973,-0.09064888610258222,-0.0480639694729464,-0.10232990040481801,0.11558828299922613,0.11831606567787963,0.10898426498249801,0.1515280893724698,0.16297654321393898,0.1339676054145926,0.08893974210999912,0.06232768642879765,0.059112868065585356,0.030481229304135903,0.028753347316331418,0.03411928201951043,0.03640725189044952,0.040687271278431913,0.0348595455626714,0.024262679499203414,0.01226261376774729,0.018632696345411825,0.03216915851391799,0.04346131091738944,0.08075492639498853,0.05802564127601636,0.054355048423961036,0.05759679832659126,0.06304593567799845,0.08222542854604832,0.09783268141774729,0.09462683605772715,0.17912295956564864,0.4605702340089546,-0.03360403894586301,0.04309033775849192,0.040224999572422385,0.04772747306454081,0.06142835538981963,0.0781890792681966,0.09836745670326259,0.11420680307405649,0.12655717004611713,0.1173500681041942,0.10980417235284153,0.12256498120559592,0.12025812171708944,0.1040444983292038,0.10368551597908446,0.10595074807645749,0.09792305479577151,0.08703727472488529,0.33369957090692903,0.011563461966809626,0.11542681518526253,0.11754947772309238,0.13434312017024103,0.07703505911033781,0.06149775391272745,0.09381629088240999,0.12027314510192193,0.11046156540722814,0.13959206103545307,0.16147680892258204,0.23200363407286495,0.5868250998133343,0.939241452701407,0.1073982803137882,0.03865701939648198,-0.00790085159008233,-0.10438552467802385,-0.1845183516437884,-0.158565036864802,-0.02150115731699169,0.09682137045239708,0.1557181763487869,0.14292619070410806,0.15206840290510973,0.1916810513606581,0.19781061478430229,0.18553669255678532,0.1854936666668478,0.21204195074880883,0.20933832658534046,0.20111054657978206,0.2603975609021112,-0.11537106659666815,0.2065166108064732,0.2413605523648223,0.2332311580203805,0.24226294908319876,0.21230204241270498,0.21836391381228346,0.2397972233263873,0.2460870902885813,0.23545302477145136,0.25430481804190935,0.5374238579318064,0.38516805757966577,0.26910327819968893,0.191609863802953,0.20272037275599925,0.1984328854142088,0.2060046974161993,0.2155734409532874,0.24031798514931785,0.2735567355383791,0.28574394636137845,0.2764715576190591,0.2677447371645827,0.2676701834187843,0.26153513568851705,0.26528874512024564,0.258029159780617,0.2591099244957529,0.6563802479881177,0.19850420832761884,0.2785789547226506,0.2889235689397159,0.26582882316128054,0.245897850144018,0.2296896857329464,0.22520380226559722,0.2551425383424706,0.14693061849058647,0.057845577636476776,0.00547607629753992,-0.10201786762061864,-0.20226342637815362,-0.1556371739910623,-0.0052655791372383815,0.10155635129075945,0.15202205006174202,0.1540355848353938,0.17185070978290945,0.18145149131762037,0.1892602402240967,0.3154303274754189,-0.10439880227286263,0.2060268551650956,0.2564459786239374,0.29487150446205096,0.24587159247561635,0.27246004471517093,0.30108514841358114,0.298226405141177,0.2725013653975274,0.2893248283036405,0.2968367472898988,0.29455002202523156,0.3310193365741314,0.684503302799929,1.0,0.2727031909357512,0.17648758665003955,0.13627438218481924,0.03711196025230764,-0.07035249505396267,-0.0940496998550791,0.037609317107863284,0.16813091653964674,0.20790660630907276,0.22006052351150115,0.23153851000221287,0.23333219819286544,0.0,0.0,0.0,0.0,0.0,0.0,0.0,0.0,0.0,0.0,0.0,0.0,0.0,0.0,0.0,0.0,0.0,0.0,0.0,0.0,0.0,0.0,0.0,0.0,0.0,0.0,0.0,0.0,0.0,0.0,0.0,0.0,0.0,0.0,0.0,0.0,0.0,0.0,0.0,0.0,0.0,0.0,0.0,0.0,0.0,0.0,0.0,0.0,0.0,0.0,0.0,0.0,0.0,0.0,0.0,0.0,0.0,0.0,0.0,0.0,0.0,0.0,0.0,0.0,0.0,0.0,0.0,0.0
0.4526725678767472,0.4230879504285159,0.4138901797821601,0.41235832410560735,0.40427749600650725,0.4784419300594902,-0.1753951470760944,0.3165622946261442,0.35267169210529953,0.32103871653269,0.246031233759738,0.20401839169385047,0.17276154046058775,0.14977074049690894,0.15543077544620648,0.12338315915394368,0.16167721874460914,0.681427671264579,0.23201664497444374,0.07301158458915065,-0.039345128374526125,-0.03025827195857782,-0.013616958185588989,-0.015001975292799001,0.0160223314875356,0.02418225491568837,0.03114270557850821,0.050611747233933836,0.03143576325602376,0.03378400461546056,0.02802822974476226,0.017929860133647686,0.024300304097585518,0.04777489672546573,0.055599019627725746,0.07355658479350802,0.08963677810726764,0.13658500095840517,0.30945021217788926,-0.29436486648256094,0.17016890020245778,0.23292454998416368,0.21439281227781085,0.12162508446687745,0.09494685109610732,0.16215215060293656,0.16341210785831123,0.16651623198149243,0.2124703072541411,0.22548591565339035,0.2864926605095193,1.0,0.4700437979402557,0.13359952920624577,0.12742605283385183,0.12579686588256725,0.06250196915783955,0.07713997541131909,0.0,0.0,0.0,0.0,0.0,0.0,0.0,0.0,0.0,0.0,0.0,0.0,0.0,0.0,0.0,0.0,0.0,0.0,0.0,0.0,0.0,0.0,0.0,0.0,0.0,0.0,0.0,0.0,0.0,0.0,0.0,0.0,0.0,0.0,0.0,0.0,0.0,0.0,0.0,0.0,0.0,0.0,0.0,0.0,0.0,0.0,0.0,0.0,0.0,0.0,0.0,0.0,0.0,0.0,0.0,0.0,0.0,0.0,0.0,0.0,0.0,0.0,0.0,0.0,0.0,0.0,0.0,0.0,0.0,0.0,0.0,0.0,0.0,0.0,0.0,0.0,0.0,0.0,0.0,0.0,0.0,0.0,0.0,0.0,0.0,0.0,0.0,0.0,0.0,0.0,0.0,0.0,0.0,0.0,0.0,0.0,0.0,0.0,0.0,0.0,0.0,0.0,0.0,0.0,0.0,0.0,0.0,0.0,0.0,0.0,0.0,0.0,0.0,0.0,0.0,0.0,0.0,0.0,0.0,0.0,0.0,0.0,0.0,0.0,0.0,0.0,0.0,0.0,0.0,0.0,0.0,0.0,0.0,0.0,0.0,0.0,0.0,0.0,0.0,0.0,0.0,0.0,0.0,0.0,0.0,0.0,0.0,0.0,0.0,0.0,0.0,0.0,0.0,0.0,0.0,0.0,0.0,0.0,0.0,0.0,0.0,0.0,0.0,0.0,0.0,0.0,0.0,0.0,0.0,0.0,0.0,0.0,0.0,0.0,0.0,0.0,0.0,0.0,0.0,0.0,0.0,0.0,0.0,0.0,0.0,0.0,0.0,0.0,0.0,0.0,0.0,0.0,0.0,0.0,0.0,0.0,0.0,0.0,0.0,0.0,0.0,0.0,0.0,0.0,0.0,0.0,0.0,0.0,0.0,0.0,0.0,0.0,0.0,0.0,0.0,0.0,0.0,0.0,0.0,0.0,0.0,0.0,0.0,0.0,0.0,0.0,0.0,0.0,0.0,0.0,0.0,0.0,0.0,0.0,0.0,0.0,0.0,0.0,0.0,0.0,0.0,0.0,0.0,0.0,0.0,0.0,0.0,0.0,0.0,0.0,0.0,0.0,0.0,0.0,0.0,0.0,0.0,0.0,0.0,0.0,0.0,0.0,0.0,0.0,0.0,0.0,0.0,0.0,0.0,0.0,0.0,0.0,0.0,0.0,0.0,0.0,0.0,0.0,0.0,0.0,0.0,0.0,0.0,0.0,0.0,0.0,0.0,0.0,0.0,0.0,0.0,0.0,0.0,0.0,0.0,0.0,0.0,0.0,0.0,0.0,0.0,0.0,0.0,0.0,0.0,0.0,0.0,0.0,0.0,0.0,0.0,0.0,0.0,0.0,0.0,0.0,0.0,0.0,0.0,0.0,0.0,0.0,0.0,0.0,0.0,0.0,0.0,0.0,0.0,0.0,0.0,0.0,0.0,0.0,0.0,0.0,0.0,0.0,0.0,0.0,0.0,0.0,0.0,0.0,0.0,0.0,0.0,0.0,0.0,0.0,0.0,0.0,0.0,0.0,0.0,0.0,0.0,0.0,0.0,0.0,0.0,0.0,0.0,0.0,0.0,0.0,0.0,0.0,0.0,0.0,0.0,0.0,0.0,0.0,0.0,0.0,0.0,0.0,0.0,0.0,0.0,0.0,0.0,0.0,0.0,0.0,0.0,0.0,0.0,0.0,0.0,0.0,0.0,0.0,0.0,0.0,0.0
0.12019152230085368,-0.06606422464568056,-0.03852126410223758,-0.0020326483884218673,0.05728983738777425,0.07690393056723233,0.08205906860239752,0.09093575844921523,0.10012114125035633,0.11339955530908588,0.11057342434700154,0.2848565959479109,0.023680399944125536,0.11327221010703173,0.12897539658267254,0.12275933136958077,0.12019059268996213,0.1401216401147483,0.14295165297483575,0.14078600795980356,0.1548313303136016,0.16859462947410336,0.19162924849990853,0.21977018957638803,0.22593520613328305,0.2249358051596284,0.21767120727459888,0.23357190405049524,0.2229576814022112,0.2205823915183151,0.2719145583940788,0.28637630040946394,0.3259915059521414,0.3544685171666408,0.37995873943631525,0.3992182134283818,0.39450894694087135,0.37681700610689417,0.3140051264102043,0.1334271948621908,0.026134252786960126,-0.0199714004113859,-0.033706805205165155,0.1659099219236585,-0.10595232434869027,-0.045728542036622626,-0.034228570611028894,-0.019753265658032496,-0.02441650798479718,-0.012200387207455787,0.0001755817583282953,0.022782509520988037,0.05329734300253376,0.05350548541274054,0.06730340208137868,0.08287811110374031,0.07247172002847234,0.0751382059035047,0.08619657246621312,0.1467980289820823,-0.06249932047771445,0.09766658268611682,0.13275921985357017,0.14364554586712572,0.14181831839602202,0.13273387780582105,0.1425370698503728,0.14253436147954926,0.1507355527492998,0.14832228374052378,0.1444914130380814,0.15992947938602092,0.14457228637249991,0.14544244660532812,-0.002010382486940178,0.04569429860025609,0.06390683203441276,0.04852242127946028,0.025485339782886095,0.015833595601737475,0.031858147176115466,0.05693016055819957,0.0707734018914131,0.0871953003919636,0.09821631709712902,0.13462051231009942,0.13859255705077686,0.12351833245444427,0.11343426035731487,0.12166035840904513,0.18175342104898462,-0.1487114044856595,0.07346879051318311,0.10145074811396282,0.09474627488254483,0.09182992395390537,0.0922503571610257,0.08425901421088479,0.08744732170237646,0.12779702513756044,0.27963957832154446,0.21233298159798206,0.20755066690724974,0.16158400469622874,0.13291256753623118,0.13576408567619672,0.12129741092744248,0.07623938142427229,0.04589801396383896,0.0350739797590219,-0.00375243028159165,-0.01743080426529378,-0.028918279814772588,-0.015370033873077326,0.04444768057108213,-0.20751067713914834,-0.035796490234694424,0.006969380516128619,-0.004182374011543387,-0.028046833787660198,-0.019706887907243276,-0.02229295930191318,-0.013218714691163699,0.005671012541640596,-0.012944895306085658,0.040701974013282946,0.13410660193916296,0.5571733817518857,-0.11584949528243257,-0.019356315848465307,-0.015769513902824456,-0.0017332794543809663,-0.0061269841651157364,0.031285486616533416,0.07365322093860441,0.13983433012901644,0.06984266109802023,0.043046121399832764,0.100927208130267,0.13785207273436512,0.18358613541136135,0.21105527109541966,0.22342748510147215,0.2555652167338008,0.28203735033016764,0.3130124340114348,0.3246059344538212,0.3835963452746594,0.17118587843919214,0.34739092515056,0.385615037625786,0.3794523185398787,0.3528746060915499,0.29986700463174704,0.23703865655709147,0.15304578567872568,0.13059705151073328,0.14385459436661008,0.19954685541280792,0.4370578303530523,0.5100419856310888,0.3023473553979743,0.2973224965273397,0.34546979220985696,0.3612298174710706,0.37029839707372075,0.3920756388302576,0.41726602110073224,0.4393801143784157,0.4373697168196716,0.42710870638087167,0.42676040323088976,0.4320861248358574,0.37335610606158737,0.30068093829164066,0.2233718935509436,0.20809401991500331,0.21945306422330746,0.20433395320505113,0.19673469710609895,0.06162043390795736,0.0844853888369733,0.0456322387061595,0.053905381725282295,0.04653502009631596,0.04157135647527079,0.062131765949655526,0.09447369198123244,0.13385940128859972,0.13601201780394356,0.17207463731720798,0.2508960968590992,0.5356381553467277,0.8620165732251418,0.14215336825157804,0.08559980221606815,0.03784897627240355,-0.0396423660119214,-0.10824464095145565,-0.09294892205148714,0.0017347890685633384,0.008018681227166395,-0.003265154900698792,-0.002727650624444606,-0.010814290023153863,-0.014564156104275045,-0.005146692120619691,-0.009976428652178043,-0.011248078971387923,-0.005776647528146838,0.15193086683385523,-0.09745316628741665,-0.01997143492722184,0.010485224052682275,0.019610515790005466,0.003952444516985594,0.010184267563512978,0.06477415500203444,0.07560649119579084,0.08205965768410899,0.10588870773069105,0.14970834017209206,0.39555759693458953,0.022741813138765714,0.08427772987319675,0.03333440177871877,0.05979079050677288,0.10193064131626065,0.13983542352548367,0.18967118539311834,0.18068275401265557,0.17673914633651577,0.1950689830430223,0.20277464996470235,0.24206489315035284,0.31221974546471265,0.26301344056987713,0.05725083372612688,0.004094217987543672,-0.0012400717721646008,0.008440797243033047,-2.526548627744054e-05,0.16771641366418852,-0.05528448450359553,0.019898160566230852,0.024108624606176854,0.022212717416932655,0.08027035748496879,0.07804159251713506,0.0797783465085336,0.12310406908723764,0.13770930986523364,0.1478863237463023,0.19826085044554492,0.27219715844806397,0.7695540376472719,0.24039239423934314,0.2726947863037608,0.26057892344675915,0.24159249447915457,0.13860360287235762,0.09483057510943667,0.12386875861599371,0.12111660946438313,0.06321182841750288,-0.045095687766005886,-0.07211301899586196,-0.03868153774045171,-0.013469487820790804,-0.01388641086404739,0.05259307309858612,-0.13967822568129623,0.056723126416787076,0.08231995249590793,0.10711519213774824,0.10651656193677982,0.09214543736791801,0.1205837779698392,0.1275377187050371,0.12862932055989623,0.11553086932204798,0.13233098784361091,0.11269993234326517,0.14097383902626348,0.4052248411885738,0.41675143556493016,-0.17997720997350836,-0.20555441099043356,-0.2065726621688394,-0.19055567774742518,-0.1407356453953003,0.01773871170720571,0.201222317472377,0.3500836975605881,0.4841550299443293,0.5844381540039413,0.625574024612161,0.6582763039817312,0.6647971428173723,0.6650520358526159,0.6636863855842287,0.6963922292015572,0.6957672541846587,0.6961733622384328,0.6942377878898464,0.7061115465157315,0.6707691529414033,0.6495093962377091,0.6881350081190876,0.9205925004358112,0.5840556228190626,0.5451708901405746,0.46737981059477673,0.44827190594339067,0.4031691595389819,0.381822792795455,0.36826712722314753,0.3383686294095857,0.3185045933446014,0.4463398747267548,0.42913106732514184,0.42965029288955503,0.413232387150049,0.3850391961939943,0.3541036758245647,0.31845058186337893,0.3242593863595139,0.33178801755607845,0.46190047546022117,0.18144107772809767,0.29956548585274617,0.312615490384297,0.2859331969414678,0.2540673998381271,0.265379791019157,0.27449993585289,0.307871208874023,0.31989454079287355,0.30696100477086213,0.32407413611214564,0.3265662093972078,0.5463449129673985,1.0,0.26339389484999337,0.17456640484317182,0.0726474969921429,-0.038435371585558195,-0.15172111923886755,-0.17684262572410508,-0.1047227742568678,-0.0065069416025311565,0.004968250520791505,0.01301088029288706,0.05012584412348156,0.051343047113170656,0.09606477457371895,0.13148865181041453,0.15706742168749627,0.0,0.0,0.0,0.0,0.0,0.0,0.0,0.0,0.0,0.0,0.0,0.0,0.0,0.0,0.0,0.0,0.0,0.0,0.0,0.0,0.0,0.0,0.0,0.0,0.0,0.0,0.0,0.0,0.0,0.0,0.0,0.0,0.0,0.0,0.0,0.0,0.0,0.0,0.0,0.0,0.0,0.0,0.0,0.0,0.0,0.0,0.0,0.0,0.0,0.0,0.0,0.0,0.0,0.0,0.0,0.0,0.0,0.0,0.0,0.0,0.0,0.0,0.0,0.0,0.0,0.0,0.0,0.0,0.0,0.0,0.0,0.0,0.0,0.0,0.0,0.0,0.0,0.0,0.0,0.0,0.0,0.0,0.0,0.0,0.0,0.0,0.0,0.0,0.0,0.0,0.0,0.0,0.0,0.0,0.0,0.0,0.0
0.07812902367503241,0.1443554452877454,-0.08638514680011623,-0.015184092042961325,-0.046173979856149495,-0.06402288080764543,-0.0848408031130248,-0.060443070764163505,-0.04457957711480477,-0.008780218514771919,0.03978116156656182,0.1726419275384402,0.31404928420451905,0.5752501869416649,0.36557122006225,0.35045209503066616,0.3812115263674576,0.4383530510681856,0.44542753609060076,0.4229751494514953,0.470828185980308,0.4944275928920235,0.46141854897253437,0.4944016354002582,0.5424314473463567,0.6115870432835454,0.634744121932639,0.6262532561402138,0.6142234652183025,0.5978409224673917,0.594493677807674,0.708732183280814,0.5061409817640518,0.5736062576466769,0.5705241668707317,0.5503222845562962,0.5217127628194292,0.5115591690154854,0.5089668729753826,0.4851384243152039,0.4762225813883638,0.4729421740649818,0.4684551336444652,-0.03091933019856199,-0.05548615924752855,-0.03194555974352632,-0.001438587544704992,-0.012314149534961868,0.0019199584245530059,0.019576101264909804,0.008658114399507075,0.01308716037284257,0.02029062243516935,0.03374257847041352,0.04371397447258892,0.03501664244606686,0.04177043641826174,0.0918235958758946,-0.08866509402737545,0.04880836541170604,0.08114030814739295,0.08732283733788536,0.07939305185936914,0.0819304928888952,0.0851864255025399,0.10264396060421935,0.10431734449690692,0.08515372543476252,0.11632184041469253,0.2989253331361975,0.11763808694981352,0.03969185950910519,-0.0028619403899214162,-0.08216152552989878,-0.08966644337003511,-0.07887024419330803,-0.06268403182057869,-0.046800531545626446,-0.03888696824476113,-0.042848335157946706,-0.06542966089553771,-0.059950411093452644,-0.07752782257470886,-0.07248506759424707,-0.054996928188758294,-0.050846422849479725,-0.015809893601240108,0.027995919996341816,0.0754165963462263,0.12256709602913321,0.17256976485175518,0.23494472745848505,0.3119495789048044,0.12629196046638547,0.33479235707494864,0.4152400041957941,0.5553900346284827,0.5923788755460586,0.6155688394005969,0.5979802662472108,0.6029696150162012,0.6024339785186269,0.6203940144996335,0.6320161559183984,0.539034572180857,0.6785755917089206,1.0,0.5080137523635203,0.45394038514667323,0.39192750330640486,0.2687836453769433,0.16921088699011955,0.14607034415237882,0.17432440723857012,0.19389592472808034,0.22895236384236559,0.3242010908297224,0.33320907116082127,0.2993352118299184,0.2685265789870187,0.2414829724168368,0.21961378167924872,0.18665544048862737,0.1526985644777121,0.12501449681279034,0.12537176020467616,0.12457963289435299,-0.08228049076113526,0.012988146943453537,0.02311997142684923,0.06355472704845952,0.08129184272611704,0.03536549965611141,-0.017919739725607897,-0.03523400625905183,-0.02110671374242248,0.16052295496536034,0.2356113844215786,0.3510115326282108,0.3294407823067586,0.1765021231140031,0.18651162653529,0.18799680200084817,0.2938571896370505,0.23021876911736192,0.22588604426758674,0.22523862367912353,0.1925864843841323,0.13530066880015457,0.08403429277882016,0.03856501680086296,0.05714427174472544,0.07175662189025629,0.15702985539981063,-0.0508507706218513,0.048095047224311925,0.049533464453380374,0.025937527975808686,-0.024766304046799945,-0.05460713969629626,-0.0530880283417437,-0.07968289298892896,-0.07650598505231437,-0.052034604459682485,-0.01760790314588842,0.017852002340571358,0.27101875556924016,0.6543122306108141,0.1356518517910822,0.07003628440551006,0.03657975041090567,-0.008987435207479131,-0.05215626447615073,-0.04149917127849854,0.0317858113021763,0.11186052434979094,0.10678143986319069,0.13041940269386573,0.15219849271883934,0.16317479528002235,0.06363280047394257,0.08253546907004422,0.11331073747711833,0.14734245909037466,0.1647151735507704,0.16826252084723858,0.2748711880125232,0.07985653762673568,0.15794351189337566,0.10350625335756379,0.11914618044997982,0.12024750118327739,0.1326168650887665,0.13699228387299506,0.15130810536973818,0.15180688480284094,0.1652066218332333,0.19397668388154427,0.3611902172868137,0.11552383805871722,0.10682344068713523,0.06409914040527455,0.05148897743566949,0.03806885236013537,0.05161711287315782,0.04384214865449778,0.05465849079348146,0.046742723113476,0.0515792570756677,0.04418392486713517,0.053120745377276485,0.05698512446125971,0.05768062918009481,0.08148536709105332,0.08729092123423764,0.09782004129626842,0.09095551791032958,0.07941534060811532,0.03435288871105981,0.05519366324608448,0.07457317243838607,0.08938986015170627,0.07960637180444187,0.0975476688367142,0.10847448510336342,0.17872642089194582,0.19698560341310517,0.19046352405939415,0.17413249569823733,0.22661771985070486,-0.0005998976981588578,0.026023410699199254,0.010525692045230151,0.022541854109080543,0.02580321366238856,0.021695001955539698,0.02797915705315969,-0.007558552770082785,-0.02020950844014144,0.003650055566383358,0.06875916957454432,0.26948510997034697,-0.1685138125111395,0.2078975523439124,0.07621250909826799,0.14373690982663553,0.1783552195194477,0.1641508078852647,0.14467057070846223,0.12512101386628743,0.12487578715971324,0.1266441148793709,0.12788644440581515,0.1377168033038408,0.1471451937417962,0.24143025426827483,0.031358676604864036,-0.051817274803304926,-0.08744730400468798,0.06033320371317312,0.08481635604896717,0.09991204022023534,0.10407937437013341,0.10661869630577969,0.09504482321677692,0.07088756381682476,0.06368191038747083,0.04187309455919798,0.04779221911273818,0.09975081824585932,0.13879706869674796,0.16478291477976603,0.18035255557013313,0.16143862003718207,0.12660338943250019,0.08542012094023849,0.0,0.0,0.0,0.0,0.0,0.0,0.0,0.0,0.0,0.0,0.0,0.0,0.0,0.0,0.0,0.0,0.0,0.0,0.0,0.0,0.0,0.0,0.0,0.0,0.0,0.0,0.0,0.0,0.0,0.0,0.0,0.0,0.0,0.0,0.0,0.0,0.0,0.0,0.0,0.0,0.0,0.0,0.0,0.0,0.0,0.0,0.0,0.0,0.0,0.0,0.0,0.0,0.0,0.0,0.0,0.0,0.0,0.0,0.0,0.0,0.0,0.0,0.0,0.0,0.0,0.0,0.0,0.0,0.0,0.0,0.0,0.0,0.0,0.0,0.0,0.0,0.0,0.0,0.0,0.0,0.0,0.0,0.0,0.0,0.0,0.0,0.0,0.0,0.0,0.0,0.0,0.0,0.0,0.0,0.0,0.0,0.0,0.0,0.0,0.0,0.0,0.0,0.0,0.0,0.0,0.0,0.0,0.0,0.0,0.0,0.0,0.0,0.0,0.0,0.0,0.0,0.0,0.0,0.0,0.0,0.0,0.0,0.0,0.0,0.0,0.0,0.0,0.0,0.0,0.0,0.0,0.0,0.0,0.0,0.0,0.0,0.0,0.0,0.0,0.0,0.0,0.0,0.0,0.0,0.0,0.0,0.0,0.0,0.0,0.0,0.0,0.0,0.0,0.0,0.0,0.0,0.0,0.0,0.0,0.0,0.0,0.0,0.0,0.0,0.0,0.0,0.0,0.0,0.0,0.0,0.0,0.0,0.0,0.0,0.0,0.0,0.0,0.0,0.0
-0.03909800026247046,0.22047406395007219,0.2586967247989555,0.24820320435405122,0.24628480323668678,0.24001031709863893,0.21136287429430126,0.1637030547520123,0.1523156833803837,0.16758814806168335,0.212638182247545,0.23701594760061234,0.38247823258222324,0.8597207868273359,0.284806224924247,0.09673571570775942,0.05904726141608401,-0.007751916651079037,-0.09739282587118762,-0.12073343594433174,-0.059844601409330206,0.06273898052417749,0.11687441104927136,0.10777656969796719,0.1348219026103112,0.15670357956752035,0.16302106076362805,0.1635105917281765,0.17223137512436146,0.18382485591573144,0.19753563464476795,0.20339935925814012,0.205663089513373,0.23976007719049697,0.515194413297277,0.22262010386307526,0.2928067304534276,0.2699930953380669,0.2627088488551252,0.27358990645309067,0.2656763261078157,0.27467019241575263,0.29583698417245957,0.3061448446636113,0.3038189848312383,0.3734784598143773,0.6954643188346471,0.06294551867583183,0.03634180661107073,-0.0799356203056707,-0.09874561621961327,-0.11198289051232196,-0.09399022271944173,-0.04175952332799825,-0.011965851607316648,0.009221208778534096,0.02474371046796082,0.04755239202761707,0.05240454686240041,0.08335769122164795,0.0913078015555465,0.057296738413642724,0.07326265674820713,0.05326823931191364,0.10862789347885989,0.29929094748153995,0.018184248709568338,0.06305877645226268,0.0672094992626276,0.08750061009736146,0.1675844395802483,0.16170763581226175,0.15323590270464746,-0.12000732912652419,0.09676784931102536,0.13091738495361693,0.14212289688277102,0.16551668815643505,0.17113355806613495,0.19654640208846233,0.21206858076091503,0.20566787519790597,0.2108307194639064,0.24034446143685131,0.24878460932877638,0.151050855845024,0.15701900028703114,0.23062952315151464,0.21003237563127386,0.2204668254475855,0.24052314839123054,0.24971132126634382,0.2390701775648823,0.20376089982048837,0.23178447356747,0.21609069564845762,0.20080009263198184,0.215899781000559,0.19725375718445667,0.19534493737350883,0.37907856892030267,-0.0389954409020405,0.19845487442334164,0.2292360205103526,0.23022003558628193,0.20628776041863467,0.2202494256900194,0.22561887682819357,0.22519185455149235,0.22172293655586772,0.2255722109242412,0.24769918104690578,0.2932171229451638,0.2522577605328977,-0.040737233401258725,-0.02853685475811378,0.10544760004994828,0.2048711570328306,0.25491178592952196,0.2797404521294679,0.31705865217376283,0.32305537021300235,0.30027845188799646,0.2859443753301246,0.29865187569443674,0.28037140595856486,0.24729668260807713,0.18415256675546274,0.10072454804397368,0.09275218606587553,-0.16459238329658166,0.03316051449998191,0.06385877657389674,0.0832287879578213,0.07636775066761767,0.09130735760756047,0.08764176358703996,0.12032786570254189,0.13911033169581127,0.18797544850571718,0.23456219956082314,0.41349431367521633,0.44527305019509733,0.049596902432541404,0.09728642607986877,0.0784373272298245,0.08014567393347866,0.05579048207525933,0.07585253161433522,0.09439075253293062,0.11666836863898358,0.1221256031379359,0.11746588195531446,0.11527715482497333,0.1119726731837297,0.09988154941261816,0.1021592306954704,0.09704147543785786,0.09855475700445165,0.08781635262337475,0.06816243186539446,0.0805215227410051,0.08571192124493945,0.2715095283773068,-0.013322172404495135,0.0651546739361697,0.051274082868386285,0.0038185706585298195,0.011396418665009352,0.05440147839712304,0.23497376084907418,-0.3538273587048025,-0.2708951445785716,-0.07727603858533508,-0.01695415157666744,0.0088327666070236,0.05893375341633367,0.0765769296763113,0.0368178894128601,0.010115077519641403,0.003311253990144055,0.016963644524924038,0.04290184393424244,0.05385870148847407,0.08942518193897715,0.32459010770572705,0.33549939899801234,0.32688575976581885,0.3488252890659277,0.11041496857709147,0.2802671585297527,0.3092512579129449,0.16228374166885148,0.14005248077477478,0.15278388066170118,0.16142790044884547,0.16172408788792114,0.18376115193332096,0.1912090471385176,0.2386160961242045,0.2871682130485502,0.6812644511241059,0.5116086530881321,0.29890885350876273,0.23274163828351124,0.11414312118846831,0.060424184580172575,0.04140646484006414,0.07183048559928742,0.1197558372482467,0.1703767002677889,0.18434524541143102,0.2075871884826421,0.20247442853523556,0.17697760983611377,0.13966688820220002,0.12781657803730462,0.12245122137733276,0.09362515086554073,0.10719566992295332,0.25340088508084824,-0.0908239477385258,0.09276710924686325,0.10104681695416086,0.0752241068905662,0.08584575716624669,0.08487471262679996,0.07463742848651093,0.08948787809641226,0.11637830670513252,0.12792800784877054,0.16073150833613833,0.4738968259257645,0.07495925127560522,-0.016072526810844822,0.012035220410094385,0.006108799686565037,0.00754420834023914,0.0028495266719385454,0.024933278973310852,0.051175529961218505,0.02901009343920414,0.017608011765787676,0.019370654149729924,0.010236214260683893,-0.012398489603087412,-0.009500365061005723,-0.018181575193957848,-0.02550972037604762,-0.02847933590987931,0.002180379183782187,0.06675764344921249,-0.06854356029256492,0.007323004506497553,0.040830278945446746,0.03531526644045604,0.04856226852367968,0.05200007015778523,0.08715837266336733,0.11001197593044615,0.11264674923747689,0.13979394230421888,0.2011136445679651,0.5092022972266562,0.216770648390852,0.056625443901097756,0.07285147699067425,0.1896686829213314,0.18492893542577918,0.18855031793676644,0.18184033599513946,0.184539083402512,0.1767111309742777,0.17821484539948892,0.19721751079531916,0.17278523423911482,0.17802007612598822,0.44752413303268546,0.11405731922795113,0.17952803625628164,0.18216714265847564,0.16848804697270686,0.14793090344585005,0.12693240427437594,0.13955260241539286,0.15031024598888307,0.14922563457557816,0.17748295436508238,0.29740408747563524,0.3845070539197928,0.03978888444903867,0.1509672776277366,0.16145966557752126,0.16885345135490928,0.22357408537190684,0.31739500405151544,0.33039107644192267,0.3238336693679729,0.32608378676987176,0.26913674139191224,0.18391252298794408,0.1459286855736925,0.11724287725983615,0.09566320734083472,0.07819650033407356,0.09195536840052256,0.24284077129397197,0.02898296493189233,0.08121921283004445,0.09733259841037877,0.08137299925279749,0.09744219848108648,0.09358031568246875,0.10942689881274285,0.14454606486015872,0.16295036749232356,0.18762308679369974,0.19642732408564662,0.21682851853683724,0.5160202768683786,1.0,0.08422209925276865,0.05583381629544471,0.01932528951784372,-0.08972854864726112,-0.18826418713389956,-0.186683897377882,-0.10406689561147853,0.014182354188421219,0.08495637209409092,0.09793110662063807,0.0911042397635291,0.08441721127268079,0.08888321640223819,0.021392912268548656,-0.011918383120898402,-0.03582967373357526,-0.04056868830781785,-0.034135259856060085,-0.021362608042433395,-0.0052791379153602335,0.276520348477961,-0.07192906013002984,0.013076039807343709,0.017509402115933822,0.01741952106416657,0.03761009535714212,0.04735629127518262,0.06821870319608246,0.0954947758579332,0.10338320577648615,0.14647234769447084,0.23807402852869886,0.34866196972672425,-0.14356802450403364,-0.09404082889933896,0.13864087397832803,0.23343609803834411,0.2547194171681062,0.3136650690675393,0.33164042353862544,0.3248139918881193,0.2964213454322703,0.2515380381116397,0.2472835483390688,0.24805520327026329,0.1416622761155865,0.34373329237781375,0.3231500886463375,0.4302417956534578,0.1850915886599507,0.42344833510925006,0.38526774141529746,0.38051692108861535,0.36565264584457635,0.3123430575063446,0.25498920202587333,0.268706085555944,0.23547894596701047,0.20715987768764868,0.2293943838905445,0.22283788630277096,0.4776270114632598,0.0,0.0,0.0,0.0,0.0,0.0,0.0,0.0,0.0,0.0,0.0,0.0,0.0,0.0,0.0,0.0,0.0,0.0,0.0,0.0,0.0,0.0,0.0,0.0,0.0,0.0,0.0,0.0,0.0,0.0,0.0,0.0,0.0,0.0,0.0,0.0,0.0,0.0,0.0,0.0,0.0,0.0,0.0,0.0,0.0,0.0,0.0,0.0,0.0,0.0,0.0,0.0,0.0,0.0,0.0,0.0,0.0,0.0,0.0,0.0,0.0,0.0,0.0,0.0,0.0,0.0,0.0,0.0,0.0,0.0,0.0,0.0
1.0,0.3435243879552644,0.2634259761705162,0.20507087297596446,0.12897281072537858,0.059677630198072235,0.059920817854295545,0.1130331160293416,0.18316582594184505,0.1824760109604789,0.1789048454511315,0.14813672091221114,0.11269703760340656,0.0864868411069706,0.052328004645571566,0.0282643923986829,0.00574079750880141,-0.008118830032582377,0.26038549871356076,-0.062182108451360484,-0.041883746499531097,-0.04649333624614518,-0.04071086157207842,-0.03139800207226564,-0.05237536291435798,-0.06536379361665176,-0.03031524699370974,-0.021158364252705494,0.0031999449296324905,0.05915988630201587,0.3399617339835805,-0.06268122770318525,-0.018804649524535113,0.01686070608910814,0.045293464986709456,0.06327235670372496,0.08871493809231092,0.11389159763482579,0.09744578541200186,0.10323967227167796,0.13544161379655162,0.13947807872382986,0.17920955726614812,0.19563734157839216,0.21815387120626595,0.2375403357629122,0.2529484593654631,0.27268436861140655,0.30345699679214516,0.5103908227964702,0.27461590093791743,0.33385501031713355,0.35874132144056675,0.369134703549069,0.38410926726843286,0.3958864794333855,0.4059254727544466,0.4069477915288881,0.4083882022268015,0.45129002164174886,0.4785589173246921,0.5934191241738012,0.27382447223560724,0.2655930728033005,0.3879511436425948,0.3929545811398236,0.4271316846566625,0.4520210691122755,0.43851079517654096,0.4175719739044256,0.3937987043740095,0.37878268448682034,0.3780379151098426,0.36745382915229613,0.3643001170064558,0.32987513707470795,0.31563139074151336,0.3141943631282931,0.30234067054813907,0.27893636951531386,0.2650210122538843,0.420506540105384,0.16112487987124144,0.1726290076610192,0.037788465132495674,0.1851020746366367,0.5555262927081254,-0.02405348216258569,-0.07574929212938927,-0.09723446504864866,-0.1365712575442428,-0.258975920713584,-0.2537520810708281,-0.17969469847628025,-0.09537863511525246,-0.049002145885391986,-0.02600923328385293,0.012295675080532115,0.02083837224879046,0.03971677734779105,0.06364273685734954,0.09754744123138671,0.11847501096352575,0.21381213968774193,0.01296942833977189,0.18147803042197092,0.1895745377811238,0.2521493030032245,0.31012399401245416,0.3417693461292734,0.35167336598387167,0.389080352399983,0.4027453438072547,0.4209938714508768,0.46016598924720026,0.6052525731345011,0.432700961296914,0.338954761245698,0.447383640093598,0.4531987351278363,0.4888933732045022,0.5144023390662378,0.5176007222291137,0.519063576382559,0.5179723247078883,0.5130298163741227,0.507976085100772,0.5006408638974472,0.49459108897389653,0.4698442473325188,0.4647647412134587,0.447185780613429,0.4493633679397797,0.436914252444719,0.4162751093014877,0.43162273970919285,0.2787269824700133,0.3102785895524908,0.29250517020619976,0.2820917809032082,0.2552256187304772,0.24173806905784764,0.2203895270848865,0.22313679811487702,0.23162183762307975,0.22499359694151877,0.23388956453630683,0.24924388103731154,0.42424225494836243,0.7635637958783891,0.1066616494086572,0.07723651599411015,0.029634142521633416,-0.040908797570099784,-0.10256141703212189,-0.0814628234323591,-0.0033059243892445333,0.05946620440170514,0.10222376589669356,0.10538533496511393,0.1073823785897967,0.09568811777163139,0.10038932912836333,0.08067948410751724,0.08307964327245111,0.0839176057277506,0.08345968363726997,0.06741242127524114,0.07241166592632994,0.19344231600618092,-0.049157370090150324,0.06080437056389351,0.07866793251909725,0.0753703274055489,0.06237883545131943,0.07285938875162135,0.08266417294373613,0.08987601427461739,0.07908192974465475,0.10830919965677849,0.1545003383634263,0.3077122554753037,-0.007977101706357409,-0.05971790712130964,-0.001715870901827677,-0.003206356975005409,0.0028848561721859936,-0.004927741261929629,-0.01033136541281443,0.0012793121688050117,-0.005327167774214938,0.06738778611565056,-0.1463039921789252,-0.0026921896241083624,0.0075501830305451665,0.011990697420221493,0.013490469477313886,0.009310805834081603,0.011496283945782431,0.016384137796226758,0.023111418561140986,0.03313899147458571,0.05030749968586117,0.034191402063427724,0.01853358603585182,0.016749677946064526,0.13647099422801248,-0.033907990609056686,0.02448886579006854,0.046912003457069404,0.07754991143886747,0.09409382072995676,0.09778152057840662,0.09990187984050802,0.11493513559261635,0.11586688274237043,0.12498793451976949,0.1518770938032861,0.17486593717685076,0.1399467293617469,0.11342147546422238,0.12060131563875628,0.13348720915166903,0.12295956239331474,0.13079094104779118,0.003994013721867251,0.0882384743948345,0.09745827452345185,0.10609878731529085,0.110740384020054,0.0939075345332899,0.09196574501747187,0.10294976781902031,0.10546276522248181,0.08779495113352995,0.09507346801341833,0.11446761361004935,0.28447943639963186,-0.07171309236502568,-0.07339114177933724,0.054024444596798935,0.06188083557285375,0.08337183779035465,0.09618590912768979,0.1018100253277907,0.09475899326725691,0.06685923108613875,0.06694213147948658,0.05788260037378152,0.05289695561211446,0.044762140509157666,0.033814495512870774,0.03833733391698515,0.039179475559886615,0.031692899401388565,0.03945212521151456,0.041933488190218415,0.03392844074031231,0.03380317034693371,0.20296929191555138,-0.02174131538558229,0.03351484220690628,0.03630836627222263,0.025025092556530956,0.02612320915575519,0.027618499774915126,0.024302314212675317,0.03571675628770033,0.032378002776448374,0.038503648106847484,0.0826789293075183,0.2777371198104676,0.015123370059189893,0.012106095892615224,-0.019061376473155714,-0.018913323107827108,-0.03177356339213415,-0.017911882246558226,-0.0045400495434290734,-0.0029928441282119967,-0.00923330158485646,-0.0006330053459861273,-0.0051003995349341615,-0.016637385845040584,0.029299997988515278,0.06345128414174754,0.20451144511421365,0.14735810684089673,-0.028289353445723593,0.03279537255601311,0.036466347641515434,0.03881379352128091,0.056141530465488074,0.06569493298183049,0.07448176264824904,0.07461411930576275,0.0824786438046821,0.11258568789368364,0.1040165672276873,0.08413208298454006,0.09359192095783647,0.10401043683537133,0.09708106716956633,0.088151222034552,0.10354333481876764,0.117445731736434,0.12633322368508307,0.0922135771045057,0.08444112174542127,0.13009161872290267,0.11722662941357964,0.11416299620760383,0.11504829526439309,0.11257359709824077,0.12404029536098686,0.12917490271980567,0.13701799947069968,0.1612293132462785,0.17391774643626284,0.2733257493192234,0.6386392793921736,0.37554297900658445,0.07687173007802549,0.051355253700466695,0.00734576039846922,-0.06684532748929328,-0.09639049694567618,-0.01958729686564954,0.06797892180303289,0.12568620874406927,0.1463427773466521,0.16388637152077654,0.1682119748504204,0.1741326360806913,0.0,0.0,0.0,0.0,0.0,0.0,0.0,0.0,0.0,0.0,0.0,0.0,0.0,0.0,0.0,0.0,0.0,0.0,0.0,0.0,0.0,0.0,0.0,0.0,0.0,0.0,0.0,0.0,0.0,0.0,0.0,0.0,0.0,0.0,0.0,0.0,0.0,0.0,0.0,0.0,0.0,0.0,0.0,0.0,0.0,0.0,0.0,0.0,0.0,0.0,0.0,0.0,0.0,0.0,0.0,0.0,0.0,0.0,0.0,0.0,0.0,0.0,0.0,0.0,0.0,0.0,0.0,0.0,0.0,0.0,0.0,0.0,0.0,0.0,0.0,0.0,0.0,0.0,0.0,0.0,0.0,0.0,0.0,0.0,0.0,0.0,0.0,0.0,0.0,0.0,0.0,0.0,0.0,0.0,0.0,0.0,0.0,0.0,0.0,0.0,0.0,0.0,0.0,0.0,0.0,0.0,0.0,0.0,0.0,0.0,0.0,0.0,0.0,0.0,0.0,0.0,0.0,0.0,0.0,0.0,0.0
0.45055083851900085,0.41474446870815634,0.3757108730418737,0.365364689584563,0.3424779417415831,0.6622030968897885,0.20951663392140904,0.23962291272919045,0.21683152918575238,0.16734042523455697,0.13909435419063912,0.1067724591352874,0.09727294443357543,0.07745936593365503,0.05707039704253623,0.05543655155630175,0.14274340297786234,0.331994993793159,-0.23888939451941285,-0.1019077289702462,-0.08910263623602038,-0.06943913293631862,-0.06464653516147778,-0.05191812600114796,-0.022209201517994208,-0.0024823251838045047,-0.004524038696697869,0.010445276461928223,0.014390841265004261,0.016365015123987442,0.025089319024331615,0.023071949226385814,0.03925232004066951,0.052830722202280904,0.06678109035431047,0.0942895098073844,0.11108242902082065,0.1516382195826778,0.173366109710068,0.41916738051057034,0.12380758563863759,0.2654789106269634,0.33611512617781514,0.3986756435711934,0.42780354550736993,0.44920199541202177,0.462317428984177,0.47990738640804764,0.5076569629433179,0.5343797642444648,0.4973286338697744,0.46510937864260377,0.40444924538977706,0.426370028769142,0.4726631049931458,0.4848282977612203,0.4919748367088788,0.48649444894628585,0.46892152608072246,0.4611224646866126,0.4476260512120543,0.4359470362919172,0.42111149811553183,0.4052548142836533,0.39584386619951756,0.5991755044290354,0.27150060132821724,0.3465078499415387,0.32669940759377786,0.2941199036946704,0.2761531746712192,0.2527579434384214,0.21683279035958794,0.2105592363254294,0.21455380847531874,0.22733471644553915,0.21715396492208947,0.34861366881493067,0.45864932101220607,-0.010244346438739131,0.08377920059430759,0.09030934132272514,0.08691069496323947,0.06101356558584814,0.07471835374466236,0.08729812796579703,0.07191777500464094,0.055243221960112714,0.042398869858053835,0.038302114463178244,0.011857939914815678,-0.0170494786725077,-0.03680518727221068,-0.047906934191475084,0.19474513416057398,-0.11037238625977783,-0.062370188025458045,-0.04802235354229579,-0.03745532284788542,-0.03386762104894448,-0.04351380486189272,-0.043785838903439254,0.002647554021847276,0.008216121802608866,0.030514734456641813,0.064333937064466,0.1782250453725189,0.6327076446021469,0.8280181811775463,-0.026586353743561737,-0.05517246661405062,-0.1097179237788413,-0.18373221812228482,-0.23445414484119712,-0.14629507493889485,0.014144913502388936,0.14021555152051737,0.18960057821848092,0.24261470108838767,0.2654572468048031,0.2698067188587811,0.2824728595458106,0.28031832486689534,0.39727708681497764,-0.010143530662802751,0.2902971264813667,0.3485261857777764,0.47063769202993994,0.521729548714469,0.5942992555690187,0.5978451530904293,0.6154736622318356,0.5923585959272054,0.5855111030624258,0.5520892420176302,0.5494703846111234,0.2978540698949613,0.1681374314667537,0.350824349027121,0.30430762178938453,0.3303501066395554,0.3559547262330585,0.3555877401963255,0.35254302880029675,0.3382350756452645,0.31747264372938355,0.312758811123465,0.3078540455110048,0.2784134722191852,0.2644247560947698,0.23236132153142158,0.1556413667094424,0.14457790157122213,0.18627264705979052,0.1870368904605536,0.17734245209543473,0.26340573917292714,0.24804672581482143,0.2491391336243976,0.24046529963827326,0.2314050567386497,0.25680605381957683,0.3181487148942523,0.5459937956150518,0.13201983032755646,0.11936795001689991,0.10808585436282406,0.08368762342677577,0.06922879140449592,0.08660679140219224,0.11298254505416025,0.12154734329751783,0.15284423500306066,0.16592307178385513,0.16638832195558192,0.1868424374897376,0.20601344930113963,0.22685709816114258,0.21462071697443968,0.3855609107434644,0.09796632899889962,0.15222416525742016,0.1531657104257968,0.15054374484019065,0.1447433870732175,0.1252750552143177,0.13349608811047634,0.16697798651221551,0.16226516961916004,0.18419726703948688,0.20441964359027656,0.287852888185705,0.7272733209899732,0.9192440672181078,0.04102644483157556,-0.02313001818218805,-0.08079489331453614,-0.16335068252067217,-0.21381621842760734,-0.13223651980599216,-0.003617442310780355,0.10333796961486258,0.14961330603998504,0.1781803795726743,0.18752216428056695,0.197992676285536,0.20116831104105565,0.18941004440806208,0.17897572400274844,0.20030386287496735,0.19187900000014357,0.185584855344993,0.2057792522448324,0.21178212856801218,0.3024544986306408,-0.08491797182355038,0.19411732390726594,0.2042028300673469,0.18234043424875476,0.20721790040352903,0.20479066236966598,0.1982998064511468,0.20420468232413638,0.20431586023173853,0.2216646609573976,0.26911031469360014,0.5078183601598047,0.08412010884456565,-0.07881952547526222,0.14770423061825122,0.14970887149605314,0.16869728683682025,0.19499582815586283,0.2062368401219727,0.20609955208904648,0.18118634311351184,0.17734710603811996,0.17369869206274338,0.16527520211323304,0.1497560003974903,0.15926068363680346,0.15024526931930351,0.16326235411714698,0.15042509804490725,0.16551518911387203,0.17805080448669597,0.19815087817907973,0.0762972854392552,0.13530543267228623,0.19005708134476218,0.1748400127615208,0.20652415044547925,0.4863239940608502,1.0,0.08915275270682357,0.027984458786202975,-0.014621450984438001,-0.11464183034168157,-0.1856458062685222,-0.16207124831452102,-0.044078225973110126,0.0850421661501196,0.14990007039827513,0.16871211545895495,0.18876028423998162,0.19369451605197394,0.20582213781062114,0.20308545491204658,0.1989417935648152,0.20374652887595793,0.20759459483813109,0.21236346227403813,0.4636631080341999,0.15290835531343197,0.2173384936279155,0.19587678788280896,0.1978108513192472,0.20524760933868302,0.16705096785972892,0.18510464563823292,0.19714866448168092,0.15692294875379098,0.14439519192414574,0.1945067168564864,0.48881036312005577,-0.03837967626617226,-0.05324762755332379,0.05316146959796261,0.07081958581352969,0.09024111146621602,0.10713414281502776,0.13448887307168353,0.1417578229100193,0.13055987995441135,0.13815331039026946,0.13816452756674544,0.1398593414166988,0.13745299657778462,0.11796586762662876,0.12601235379925338,0.13352033229649557,0.146692725911131,0.13390037460766416,0.3235371776301938,0.09429864415089559,0.14500900092369826,0.152878408855462,0.15527964592697088,0.14439375649997377,0.12447398476342583,0.1593521636931781,0.1631463295395902,0.1440767830554456,0.178748977332661,0.2047216894431225,0.21297158793021306,0.5659250657023185,0.8578023197606253,0.10885819707078008,0.05146294214802514,0.003060243681366008,-0.08383484085588551,-0.14854663297174298,-0.10178019004276313,0.007719886264209276,0.10583233668008098,0.1413827873260715,0.16523779175125783,0.18059147882429566,0.17360267792085,0.17231261996701816,0.17528210606522443,0.1763576535298252,0.17492524166961457,0.1662353871060333,0.16228278447569638,0.16782578066486836,0.1673211189314493,0.16672452407982202,0.15222758761130342,0.15302070875523546,0.21284725036780983,-0.061410007595074985,0.1051084087677397,0.13224160925222248,0.1378694713042598,0.11624724227912225,0.10218971880480496,0.10665458448540276,0.0,0.0,0.0,0.0,0.0,0.0,0.0,0.0,0.0,0.0,0.0,0.0,0.0,0.0,0.0,0.0,0.0,0.0,0.0,0.0,0.0,0.0,0.0,0.0,0.0,0.0,0.0,0.0,0.0,0.0,0.0,0.0,0.0,0.0,0.0,0.0,0.0,0.0,0.0,0.0,0.0,0.0,0.0,0.0,0.0,0.0,0.0,0.0,0.0,0.0,0.0,0.0,0.0,0.0,0.0,0.0,0.0,0.0,0.0,0.0,0.0,0.0,0.0,0.0,0.0,0.0,0.0,0.0,0.0,0.0,0.0,0.0,0.0,0.0,0.0,0.0,0.0,0.0,0.0,0.0,0.0,0.0,0.0,0.0,0.0,0.0,0.0,0.0,0.0,0.0,0.0,0.0,0.0,0.0,0.0,0.0,0.0,0.0,0.0,0.0,0.0,0.0,0.0,0.0,0.0,0.0
0.40431424340858185,0.41959712596884563,0.4151237141509376,0.6771990438126,0.5020390009595802,0.23516946388921847,0.2468705418558685,0.19853123800029282,0.15929526276512812,0.14908396657336062,0.16419310761177863,0.191277905632639,0.19592396938649068,0.1738037900384882,0.12135568085086533,0.10925079515494956,0.07933699103261294,0.05477907669071142,0.04457388906886659,0.023869172556874766,0.0025010977816512766,-0.004034557016257508,0.001975476935327702,-0.12277363551827829,-0.08761348190345522,-0.04346874656036015,-0.050554101726827054,-0.07571285246222847,-0.07869971389518986,-0.07958394351115447,-0.053441621586855316,-0.08568768645043515,-0.07112700122804787,0.014929530989831418,0.04838171669486694,0.059183404131168335,0.10971295795720826,0.14856967784501926,0.16050153870787545,0.35394278779611843,0.12451704973670683,0.2565240890930612,0.2757953726283673,0.29648057333060746,0.3286620378916528,0.3514564469769942,0.36110407629050156,0.36665998723944343,0.3744388581497669,0.38308551687656967,0.38434170362709913,0.37823600459926116,0.3781593427802772,0.3662444514142529,0.3404328940677834,0.35810979334352466,0.3518889759989345,0.5418966077838123,0.29316363734503886,0.33880211023809065,0.33504088046579134,0.3193171045167057,0.32556088439710634,0.30923134981229156,0.29165792159786136,0.30435598295970595,0.29127800559601674,0.30325249304046326,0.3278270935931527,0.4083784071692892,0.8394637284471467,0.5039198346820387,0.1842027596157896,0.1319931716945778,0.08316886332164626,-0.004933394296455097,-0.05415120380432597,-0.01841782818957941,0.09517369487299437,0.1606412968858705,0.1683372082758083,0.1818241630615379,0.19364360882628032,0.1796855324615089,0.16385534587744963,0.160344740807028,0.163006087019978,0.1424313004771757,0.13731077746025572,0.246765480274716,0.08098830410848981,0.10778385933640618,0.10034353881071402,0.12222044666906645,0.09401343664551731,0.09402630452028242,0.11457104058984004,0.13638411052796195,0.10445384138996619,0.1197937705549499,0.27958290454735457,0.008039858257520112,0.035318201601046616,0.05923726688592949,0.05592871876556891,0.04840837355211591,0.05706273345563719,0.045096559169729385,0.03800783699624983,0.05019396004019684,0.05084734442670934,0.040379939506883865,0.19761263990494468,-0.16040944856144362,0.05978176978803597,0.07822697720990329,0.07094921205857951,0.07119994470495877,0.07301386009999661,0.07509912623249984,0.0921203246110567,0.1050389000642341,0.12380824459853614,0.13829832291167338,0.13348555541787932,0.19461412414125356,0.5252340943147422,0.6377871247976196,0.07155030837694588,0.024280119868019003,-0.02372059811017984,-0.09507903982720364,-0.1536685288199464,-0.12399086797241171,-0.02076026370280679,0.05905398676962057,0.09191495145377,0.1129639916298671,0.11053058989347944,0.11201403722433417,0.12421896869016874,0.11133719243887283,0.10492890352515201,0.10485926934463441,0.10328840111013185,0.11118078499053269,0.353620641618282,0.04942869669476318,0.09529560791408427,0.07781279499460951,0.06767868523289867,0.06866048127020255,0.05553263957470807,0.05068400850674267,0.06795879677308785,0.06927752910323082,0.06567221469410194,0.13663895538104734,0.42907904700724425,-0.0369767925940647,0.01552609171918437,-0.010015870641943377,-0.003032572902288648,-0.0031730645935902748,-0.019888725246978153,0.0030587141448234307,0.02200610259145824,0.01089019893455672,0.007803395648599943,0.00450129842434955,-0.00265971576184845,-0.008450301142241583,0.004737511299687574,0.012374913286407677,0.0129006099982113,0.012749891219189863,0.03332887289742855,0.09476560436974237,-0.16230585289600957,0.0506502592240652,0.08344601044365905,0.10217190225141921,0.1259842041647177,0.14245374697084232,0.14543120274278215,0.1931778755204049,0.23046768805825338,0.2377846486174401,0.27546853480059197,0.32407404234221704,0.5560009763767133,1.0,0.20215310475787623,0.16535245157408396,0.12470013558591979,0.05076981496033818,-0.016342119953138463,0.016296757090041643,0.13715281947407218,0.2524254891658867,0.29858391300965714,0.2648592367315248,0.25999263790158184,0.26412036752747947,0.2356513280029735,0.1968932442108274,0.3243163222800092,0.02780715298781115,0.14058074991948305,0.1504070890710156,0.14133506449089475,0.12825460618429202,0.10808986868055385,0.09642320701868227,0.11697913973646214,0.13889272387246712,0.13535152636008543,0.1525711546300134,0.30212725714549565,0.20495116367884392,-0.08657354048451671,0.06799959345849137,0.05547746008975714,0.06072462964660124,0.0660601985648587,0.06242035038275014,0.07130346391857072,0.06148085924703728,0.04510256849252248,0.025773954384618984,0.0360560475522985,0.02054663849438946,-0.002908841404646593,-0.01303271295029992,0.010686177674795664,-0.0030734118179381684,-0.014154413229826027,0.010224631380642904,0.011231976615742847,-0.005881459117184839,-0.003768684555161207,0.008909747277964186,0.015204879965290487,0.05173428963517786,-0.0539657918017521,0.005585455057282444,-0.0003843146648310789,-0.019989755105858466,-0.016718032602898596,-0.03391133614629793,-0.018658393834733136,0.01703274242961606,0.030958411385298073,0.051898796989317444,0.13664044826414432,0.3590218643516348,-0.05779435800152573,0.02511538707347852,0.041203633998367156,0.05697238062710357,0.06636937061182492,0.09423321763128331,0.13034841073619705,0.15226665470517464,0.18697945614344735,0.22481713537253523,0.2610750317940236,0.28608140674663396,0.3665877873306207,0.0,0.0,0.0,0.0,0.0,0.0,0.0,0.0,0.0,0.0,0.0,0.0,0.0,0.0,0.0,0.0,0.0,0.0,0.0,0.0,0.0,0.0,0.0,0.0,0.0,0.0,0.0,0.0,0.0,0.0,0.0,0.0,0.0,0.0,0.0,0.0,0.0,0.0,0.0,0.0,0.0,0.0,0.0,0.0,0.0,0.0,0.0,0.0,0.0,0.0,0.0,0.0,0.0,0.0,0.0,0.0,0.0,0.0,0.0,0.0,0.0,0.0,0.0,0.0,0.0,0.0,0.0,0.0,0.0,0.0,0.0,0.0,0.0,0.0,0.0,0.0,0.0,0.0,0.0,0.0,0.0,0.0,0.0,0.0,0.0,0.0,0.0,0.0,0.0,0.0,0.0,0.0,0.0,0.0,0.0,0.0,0.0,0.0,0.0,0.0,0.0,0.0,0.0,0.0,0.0,0.0,0.0,0.0,0.0,0.0,0.0,0.0,0.0,0.0,0.0,0.0,0.0,0.0,0.0,0.0,0.0,0.0,0.0,0.0,0.0,0.0,0.0,0.0,0.0,0.0,0.0,0.0,0.0,0.0,0.0,0.0,0.0,0.0,0.0,0.0,0.0,0.0,0.0,0.0,0.0,0.0,0.0,0.0,0.0,0.0,0.0,0.0,0.0,0.0,0.0,0.0,0.0,0.0,0.0,0.0,0.0,0.0,0.0,0.0,0.0,0.0,0.0,0.0,0.0,0.0,0.0,0.0,0.0,0.0,0.0,0.0,0.0,0.0,0.0,0.0,0.0,0.0,0.0,0.0,0.0,0.0
-0.04792253048777862,-0.02055934313233936,-0.03922390555467093,0.009239232816178663,0.037485639008529956,0.06263582711229171,0.0777452750430965,0.18931246356893877,-0.1292098636319226,0.11127400470940765,0.1472224972600606,0.18133028024164494,0.18712327460220915,0.21201367549829778,0.2197745143355106,0.2643289542373384,0.2918591861689355,0.3225068531203377,0.3625398941721085,0.39029616461922134,0.5129359202995768,1.0,0.5410626480658295,0.3217772291766424,0.28738759653010154,0.22954780075775608,0.13607208959928757,0.10391169972396773,0.17765590339492313,0.29783322051224065,0.37755796111261886,0.3950725825817004,-0.01818846082548787,-0.01603297820095554,-0.025606639207440156,-0.036581133580328155,-0.03855212561484313,-0.004222254590447901,-0.0009676469125144102,0.03207144289298799,0.07837201290967309,0.062389467547519145,0.03611515843071578,0.37810821793116617,-0.011073594186471084,0.017937871307532556,0.01673832594376147,0.04048219139829259,0.0184801012028713,0.021782237809117744,0.03573986446414352,0.040037489163083376,0.016383243466394096,0.023573526825561672,0.07385720469054556,0.05787090674423207,0.059799982687910834,-0.03281049443993664,-0.0018368497811814056,0.06426006363629573,0.07094816049160824,0.07621613210392018,0.0750200736109827,0.086306955006607,0.09723127742763077,0.10355746920203865,0.0840863298835798,0.11122819507725215,0.11112727083375384,0.2857898539287128,-0.024918079213265967,0.088308276869505,0.09048040963112047,0.08936896421781931,0.09755183412860689,0.09765419250168167,0.09964045349056046,0.0862084070130069,0.07339288754315183,0.08046638213659993,0.0759955650553992,0.06622622675601106,0.05081722125597857,0.03262835866034679,0.21936478056930808,-0.026113989012641357,0.04999137534469609,0.04486128748543062,0.053531268385856784,0.061530513999150396,0.06413899989689359,0.07345235099666143,0.09402260853487586,0.08481070092590674,0.09400836813700934,0.10931363657334713,0.2939797099503026,0.0538052523868021,-0.09519141594823252,0.06657591893265714,0.07679154024958637,0.06677579715423794,0.0625741406772292,0.08191570048304288,0.07335205232141342,0.05413325014525445,0.02704799405674773,0.06465069701286835,0.052533103887728014,0.0434159069522278,0.04634220330137699,0.050484814352934934,0.04148387495194027,0.04538172000142436,0.08590230348212334,-0.014396592633815276,0.01927019923765881,0.009718974067050464,0.0035616645326027713,0.0008627026320883458,-0.01317924498850448,-0.010497704392160176,0.018208883932762293,-0.006325869599631628,-0.004555162456600556,0.09092559526476603,0.3886598067861067,-0.22102815336685155,-0.11259189876841591,-0.12880367642531745,-0.13897614784675674,-0.1608096387944446,0.7096114825929429,0.7269505715310545,0.7506481353232711,0.7416096374476502,0.7001089412891162,0.6419442850144494,0.6136354042628711,0.5959068531506361,0.5625623935125622,0.5261494219148588,0.5211431793789443,0.5017265208821619,0.4783046022368398,0.534909676649204,0.21161035348579738,0.43606499297667833,0.43520106694917443,0.4268342520531654,0.3935018365735736,0.3741478631988326,0.33879474089799455,0.3433826131338261,0.3383178403983591,0.3598878750987444,0.358274890795979,0.3410984495210805,0.3114503641390743,0.294756159742816,0.2861931594188763,0.46918761948477633,0.201195466506286,0.2409509691124172,0.24027794043925926,0.23360800608993695,0.22001024525473936,0.21080577188594735,0.2090722052069611,0.1897368607321745,0.16787088626362523,0.16303364230595505,0.17373610645781612,0.15374401289989895,0.2065467983073157,-0.1190726718862668,0.10866030982931148,0.1210595073508518,0.1122528695506379,0.12171245058398686,0.09964166527121163,0.1064485522783851,0.11584832232935853,0.09526346868254237,0.08835805612265767,0.09592786151272371,0.0939306466782291,0.08102707557377635,0.06511324010816996,0.05224500681445911,0.049839383637483595,0.0515144654930985,-0.061635307810932,-0.012476049061417471,0.021953959730460278,0.012391983497948462,-0.00496401843737699,-0.022396566037286916,-0.029611959345011363,-0.023673651692323487,-0.01680240205684779,-0.02416043280423033,0.012058900667679536,0.012119577019671337,-0.008227814897917355,-0.016711161072705094,-0.006447085169266948,-0.013823195349381283,-0.014880383412354429,0.0006535094563429223,-0.003017043115345064,-0.009841436388495148,0.1758344728758898,-0.08185939305922167,-0.014569590716933985,-0.010924256441166354,-0.008830979938363936,-0.01820687732514122,0.02819383511300602,0.11258217922631232,0.12249188631801436,0.1358039268663275,0.12689037215753898,0.13554662221181954,0.13809364429922502,0.14356373183334467,0.30806371778808406,0.030356113504769182,0.14175952209644158,0.15304301904908432,0.15823478370557661,0.1579729547842059,0.19833843977069004,0.20725810043866078,0.19905576536525993,0.19243299900960265,0.1859995335253323,0.14793351212288153,0.1767082174496727,0.18541590504938008,0.1771151566866555,0.17561679935994146,0.17223954904402433,0.16591809942552632,0.1713719406573649,0.11912955909510609,0.10408812452395023,-0.030175233775626652,0.2022341354120122,0.17430648644965194,0.19045845750280355,0.2105442805572924,0.23397337047827654,0.22865636689164523,0.20890300602285417,0.18298727042654178,0.15509769720852837,0.16415771467945067,0.1560318678953925,0.13869621244442631,0.13414545398814623,0.11834130228915848,0.1235800921478563,0.11816861869249352,0.11696051123630924,0.13149713181663866,0.3758834661512272,0.057253428422506546,0.10083678681698721,0.11922487444175706,0.08664358669964589,0.0794650426237152,0.0645180309076528,0.09157003936327082,0.10971326965027196,0.10557179848520529,0.17166920706341257,0.2435918822036331,0.3311437008817501,-0.17545054208836303,-0.21184167793865094,0.08386641709135838,0.1301565173476555,0.1803846065942995,0.2376904650999588,0.23139938316010492,0.19566841992365538,0.15887644198725437,0.10539283745190552,0.07842365132864026,0.09769829539512462,0.07697214345593338,0.0776640533295645,0.08535510765901863,0.07363037279885175,0.07513271804925978,0.0865545570586459,0.07283263046027405,0.06601988848942705,0.30717249654303724,0.009512314341302192,0.0700263534750363,0.06570414819906019,0.06506125809784774,0.0,0.0,0.0,0.0,0.0,0.0,0.0,0.0,0.0,0.0,0.0,0.0,0.0,0.0,0.0,0.0,0.0,0.0,0.0,0.0,0.0,0.0,0.0,0.0,0.0,0.0,0.0,0.0,0.0,0.0,0.0,0.0,0.0,0.0,0.0,0.0,0.0,0.0,0.0,0.0,0.0,0.0,0.0,0.0,0.0,0.0,0.0,0.0,0.0,0.0,0.0,0.0,0.0,0.0,0.0,0.0,0.0,0.0,0.0,0.0,0.0,0.0,0.0,0.0,0.0,0.0,0.0,0.0,0.0,0.0,0.0,0.0,0.0,0.0,0.0,0.0,0.0,0.0,0.0,0.0,0.0,0.0,0.0,0.0,0.0,0.0,0.0,0.0,0.0,0.0,0.0,0.0,0.0,0.0,0.0,0.0,0.0,0.0,0.0,0.0,0.0,0.0,0.0,0.0,0.0,0.0,0.0,0.0,0.0,0.0,0.0,0.0,0.0,0.0,0.0,0.0,0.0,0.0,0.0,0.0,0.0,0.0,0.0,0.0,0.0,0.0,0.0,0.0,0.0,0.0,0.0,0.0,0.0,0.0,0.0,0.0,0.0,0.0,0.0,0.0,0.0,0.0,0.0,0.0,0.0,0.0,0.0,0.0,0.0,0.0,0.0
