-0.01100070283057373,0.0016493799331053346,0.032449251179199154,0.049413983277454804,0.11695073500677908,0.15247068324345484,0.21667469547800033,0.17641956168875578,0.2352062202681304,0.18135458154618697,0.5483623156618033,0.3859991270468626,-0.1783679463129418,0.28060499134377515,0.24423377825995654,0.2706362703346593,0.21272590744079928,0.2140232853495846,0.1719491844639986,0.15498115508605348,0.10797167697280236,0.07495846130799083,0.03284533778790913,0.0010198195954949968,-0.02567971557540971,-0.021041925080567625,0.04421504308820601,0.10224352510146484,0.13706511498153273,0.12344606497020197,0.13220514106770212,0.12057009250057554,0.13971954263615438,0.1361668046773569,0.1835382853472696,0.16837259449736583,0.27043220891481334,0.1940872684906038,0.6029968594405232,0.23788069982564136,-0.18039801748982737,0.3986917085583416,0.29913354507851647,0.32429374749956547,0.23590562323336098,0.2159789732066331,0.1743857187339451,0.12851855103879622,0.08394165601741152,0.023456303326678436,-0.0022595332988208164,-0.027846162611911168,0.012217180266577674,0.0634470167306221,0.0930791539119978,0.07793023857632277,0.04763375778640793,0.03188272082623225,0.01721398801142758,0.016138307033419695,0.005207551273238013,0.026734465527788076,0.025861581445041547,0.06753526754798368,0.1675946917843911,0.18960263367609867,0.16523967150716035,0.14809984154725503,0.2161272492732033,0.2778435116751632,0.758901290189056,-0.06991525471538716,0.04860759462973465,0.33062143534525756,0.2515517026767156,0.28245156396309135,0.22034217059423822,0.22689221951099137,0.16573619825766486,0.14678497634763116,0.09795216809773774,0.06101624179246266,0.010232909085009758,-0.014876530444411612,-0.025371512778855115,0.011258165117562469,0.0816895777928145,0.10636944653682097,0.11311260583326425,0.0824003946871715,0.07728163587248178,0.04997345546100989,0.03762110330773784,0.020125802449142822,0.009831331062064998,0.015051833637262983,0.004053913398338766,0.003436566668396027,-0.006956694206389987,-0.0011870870831690446,-0.005520928286986846,0.007299023458816644,-0.0016482050231160267,0.0009403797882854748,0.0037219031905246277,0.010062779936355478,0.012840419152695874,0.016628484234791574,0.04404623087330927,0.04600613639498432,0.10072911357755479,0.13742765421633524,0.20647281759419953,0.19558234686194995,0.2043262269350671,0.18319864409429354,0.47559608742006065,0.6767621592719537,-0.20744274895274,0.1858330374155438,0.27723947220226697,0.2694791177588948,0.24561937779053208,0.23143839372138275,0.1948266347036201,0.15705185935319457,0.13153375554325827,0.06876951655948847,0.043676570215699775,-0.0037404299291426434,-0.0214984062281644,-0.012938322094400625,0.047822254919257776,0.08128154814054502,0.09593944972417298,0.09876151709272797,0.10198042272067781,0.109449757221288,0.12045487129610598,0.1348653213918329,0.16954429347459507,0.16085261926299005,0.24598779818489402,0.20616769288054618,0.7516870318281581,0.12102192202757552,-0.12123601465861204,0.3420571324251024,0.24012213225034348,0.2826714348684386,0.2201497429249606,0.21170947001206902,0.17056826580897033,0.135544932445998,0.08471336802086792,0.033625825670348275,-0.008670997546545921,-0.025621082500380858,0.00802566863278437,0.0675298610277124,0.08567262945977244,0.07600666305541608,0.04309997607360851,0.035123817330165015,0.019111544161446784,0.022447788432281734,0.021677837328292336,0.035884054338691324,0.05940737141225807,0.13575248586412708,0.21882789474807293,0.16924506087146043,0.19432776119360598,0.1667158793440374,0.5008027764779359,0.4381792281522045,-0.19062235959687743,0.2530137480444918,0.31645514456988444,0.3399104547264399,0.32507276163071935,0.32981520083883803,0.3108570682499705,0.32353335787139803,0.2818405944784264,0.28377800820024834,0.011864366864513398,0.03973380214983547,0.10290986139272089,0.020430446480459965,0.2395464627923171,0.25238122979850214,0.27121184752566396,0.21668446636258093,0.1887059400308202,0.14023153789586731,0.11410217930365035,0.07268799981959494,0.05578254139896921,0.033028525539228686,0.022350620955399504,0.011412942972276206,0.0025233474119241944,0.003057633130830282,-0.008544395142182123,0.0023763940949128757,-0.005200383794704849,0.005223339107296717,-0.007661622603780263,0.004525613359426445,0.0005179488127799817,0.0038595301362983987,0.008578608799440501,0.0117635622333539,0.02962139746278211,0.03323120919144771,0.09469918954350141,0.11288932326388963,0.15174844185298705,0.1086813094788037,0.1620823387361366,0.1577466366079803,0.5839429855870291,0.19437806126569454,-0.1258126729987015,0.27384904653234315,0.2316443623773523,0.29270420981403233,0.2547918143276842,0.29021128127038026,0.2676336783151527,0.29254393863350575,0.2402546233328264,0.14851733847017454,0.04774494665043325,0.11764242296142283,0.06923330438634001,-0.02840999181037395,0.23738523786818452,0.2640794709716468,0.28281961824442053,0.2358921814123352,0.22319434435768698,0.19579389106525688,0.19485161421191796,0.17133321410119953,0.19888693737307728,0.18088734700277465,0.2495237113663174,0.1922156432955975,0.5138878982065394,0.18089583900623657,-0.16582820029954512,0.3112647852165371,0.2625549979804397,0.28359644478337964,0.21750931130570092,0.19749997864294314,0.15668074090238848,0.12045745857676311,0.0787840979923484,0.024497015867044752,-0.0018779041178631827,-0.028367505984765208,0.007927164278189762,0.05930724568372597,0.09448131376479488,0.07370001068564375,0.045112812694253504,0.026463718468778444,0.01171194662890431,0.014312569658557501,0.0035539807110631758,0.023348897479854327,0.021380979112485266,0.08158501991034277,0.16394378256280326,0.18915255139840342,0.12213152172541586,0.1656872893061738,0.15430058419836953,0.42066939897407,0.4899324066865955,-0.18012406692729865,0.21227222537715573,0.26103475444990765,0.2816336100531405,0.26466190257273375,0.2669386526231008,0.23872685761596865,0.23493729578724712,0.20658109479024359,0.19042410191846845,0.14242661920875704,0.1524333558622767,-0.023693244139010947,0.017708764122598905,0.20161523603366244,0.18960595537678762,0.22399963464656106,0.17925023719671937,0.15542460496971208,0.11952437694715738,0.09250266241575163,0.06550705366322677,0.0417793191501676,0.03248277826700717,0.011911455076117457,0.014770860216628509,9.916140261931672e-06,0.00042899985885138287,-0.001844723540681626,-0.0031491777259482117,-0.0011234816309995076,-0.005250700638499829,0.0033581740945491777,-0.00432811589480767,0.005540809932635376,0.00582177670280007,0.02392022129369052,0.03667222544504552,0.05331791400731533,0.10274797526583497,0.13504687078930333,0.21475150117343994,0.15110527785938985,0.21421197432425554,0.14759297299112298,0.5405872774129635,0.5462511828584391,-0.2128233455071862,0.245956159367721,0.2258369668868775,0.25904256220019806,0.20309118519454458,0.21011309946784887,0.1634894357677495,0.15449322997335746,0.11035110775815257,0.08920808828109579,0.04360119026297617,0.01206165349333137,-0.004836522298897626,-0.027231702853543597,-0.0005761405141225931,0.036886798406403944,0.08796569310327632,0.09076305448304502,0.0859456328458665,0.05892941059437226,0.043208405021830695,0.030993119234811344,0.02249032222535642,0.009656820193678042,-0.0034505535702763646,0.002139697281435827,-0.006720772708202661,0.006014175708209014,-0.003805547803990498,0.0055779849424478015,0.007924634963949196,0.015938499607667276,0.03019515256807407,0.03772885352325893,0.0747525670383573,0.11503463231188595,0.17040926251906965,0.15566493552127897,0.17097371912792292,0.1699319550819023,0.3509126976409441,0.6924194640880205,-0.13958907495445266,0.09501510614475105,0.2663460548987952,0.24697719809145413,0.24710840409965282,0.2279961818320314,0.19916122695276645,0.1782711892618263,0.1486587156106321,0.10939069330158842,0.0574441465570256,0.015215669839743854,-0.017808917450342274,-0.03502471369384511,0.010607254753545145,0.05574646722206483,0.09637647335724361,0.09558895710058891,0.0995800716340407,0.07974373015509942,0.06660252821197485,0.04466947496471916,0.03102056120892012,0.016561160301160734,0.007331372203223161,0.0037092177005916224,-0.007756230111524636,8.050154588043247e-05,-0.002915059901281779,0.0021498669773767085,0.0003027287096383601,0.013338074430040847,0.024459327536394383,0.0412702029954048,0.07938547019584788,0.1209662305327299,0.1745671535063993,0.14862676441248887,0.19491872477007693,0.14910400315616665,0.4433379895824763,0.6558448482410583,-0.20425404874875044,0.17247681523971675,0.2641884509241494,0.26978038294000745,0.24396288662415608,0.23665417131408498,0.20704500504135312,0.18912569731769355,0.15282720918487464,0.1154266350530489,0.06723629086396789,0.024387074692674853,-0.020944044273572632,-0.035173645612534936,0.0001536035158586485,0.056787973125251,0.10862083816696258,0.11346710622900666,0.11015916780845982,0.08210266684996162,0.07297288477502453,0.05018808454956624,0.033156837083666714,0.020146721583755748,0.006514706724160267,0.008638012428054178,-0.00378263825090275,0.004420693683493195,-0.008869384069580223,0.0038441425791319347,0.003008538019374868,0.013779369864299234,0.02308364612277897,0.03316805916735951,0.06974754927459186,0.11228298914309941,0.1477995932569265,0.13942406662533743,0.14743015730513107,0.14434564830254193,0.31100613283333717,0.6263621686523964,-0.11185150548325849,0.0822885730276419,0.2472838451328224,0.21759107174179435,0.22024325961617022,0.2024973669401834,0.1868696291579016,0.17024225151139405,0.15167609983358885,0.11198668498473434,0.07463503512826879,0.02099426587565035,-0.010538422687982685,-0.04127848778204516,-0.006774481245042525,0.048922080954836585,0.1192754371479627,0.12142305208076745,0.11677999549054503,0.09032413867665791,0.07024266954830652,0.05307077180601235,0.032221486216636445,0.025775287868494125,0.010527362856681032,0.004179578668481712,-0.006664446418880035,0.001003150446037846,-0.004334555288943287,0.004959321725795958,0.004092033702914043,0.016173434095295775,0.027855643208217755,0.04523993868682622,0.10979373776586118,0.12503005005390563,0.1783126643676666,0.123022715228975,0.19664401915345217,0.17495576559419573,0.7199315761126865,0.13823917508279232,-0.09889232417578553,0.307449236578861,0.20552912479386917,0.27014782225794526,0.19926599557017394,0.21830373243392906,0.17946309107251254,0.1697034158120284,0.12403864879880029,0.08444904451502716,0.03756822193484336,-0.008173319321592062,-0.031855784377319424,-0.02115910832050476,0.0562258431059981,0.10572450177536963,0.13296525821622282,0.11406558997879912,0.09536884301528568,0.07619632058070785,0.051658071589802214,0.04100034860909151,0.01797487885048139,0.013064494676353811,-0.0034264562865559483,-0.0005449040888115603,-0.004970561435946179,0.0013162992215672814,8.27973757070019e-05,0.004076319915605977,0.026995760631937968,0.03244705528868166,0.054406094420175126,0.10524360007742051,0.1443217832737446,0.18004159885046522,0.151372000678266,0.2124615222277465,0.1672038067832781,0.6095414338949489,0.3446700764306144,-0.1884049592929032,0.272271579094257,0.24816812807349278,0.2711035794838766,0.22386427085368021,0.221558188223019,0.19055407860909293,0.1724729733255092,0.12818892159437736,0.08866414531447657,0.026831344684327497,-0.0035351660123107715,-0.04102155433021697,0.0009782152273447094,0.06615978651587774,0.1230032898056918,0.14176122620373843,0.12756409525001655,0.12594999553751152,0.12170258570887055,0.12520036154953076,0.14489106359305995,0.1397023812778448,0.19497795370461654,0.15885726256597055,0.4352864169595854,0.5747565837884453,-0.19853015588819123,0.22791556061070672,0.2676746241281522,0.2558957820603741,0.2300337154590949,0.17923477669902302,0.16538503003605845,0.1312622665500398,0.09115754747186429,0.05360160433440458,0.0016791822966024418,-0.02682433681385768,-0.014178213638984733,0.09431347622149383,0.13476356291904878,0.15055446748879542,0.12477668568849269,0.1005182863713245,0.08499376812820993,0.08965113597955653,0.09401239734815572,0.11745339916877709,0.12018914207813176,0.15692134144990688,0.18260764946342353,0.4330065715622325,0.6373574222124317,-0.1795474126787562,0.1879843085197168,0.27093952621737205,0.23807472346728656,0.2207682685452482,0.1863658588574132,0.16254474618189252,0.10306982621216143,0.03820681286173902,-0.0032033900760426942,0.0018778343845265934,-0.01350534900963401,0.005138674055737787,0.04921309592948145,0.09534203069510626,0.1351525117139702,0.13510955749031167,0.1539514859046539,0.14432240896052856,0.17711526161694494,0.13533765941786807,0.21040406341599074,0.1756985911175476,0.5574861178733141,0.20264349260399972,-0.08917956550042827,0.3441064740415631,0.21787466076815748,0.26956192792726885,0.1927831446995539,0.1955657858101802,0.11990826357188118,0.07474089652839576,0.03181812002359305,0.013644686625099938,0.01647884461745864,-0.011594946494020136,0.037357664815297176,0.10711823562323405,0.19658649476968046,0.1955385342165048,0.22841930505735267,0.19572113198487925,0.3957305618789432,0.5876046013032563,-0.16209206248695213,0.21415632363313067,0.2580463571207953,0.2402978335170955,0.20008006945918597,0.17372411047285144,0.13957908297606578,0.10677994737155452,0.05013770778084504,-0.005049377845312412,-0.01804888939813503,-0.0003640352746888903,0.0744635713068635,0.15429303319957924,0.18993508955541943,0.170254737463174,0.17639157513964057,0.17594193747343212,0.2094595553235727,0.22042590947447957,0.2915079366229233,0.26795554712658504,0.6153924798661763,-0.008031338770301747,-0.006931843860477586,0.40736085545150047,0.27600182930936307,0.29538518075326364,0.21675690197500708,0.19111278119588904,0.13713140713806518,0.09069759208059808,0.04657298619505048,0.008779706780134683,-0.001206512174908767,-0.008681616532459295,0.03869799353046256,0.13894973282701362,0.15249891709622349,0.1647693042334507,0.13780352721615563,0.17565036831834283,0.15633494940315282,0.24414504094513312,0.18414300310354717,0.4328574423491213,0.38405294701504394,-0.19444741770890925,0.3050166313813616,0.2721733816721651,0.2899573467947518,0.2342034125800199,0.22209974524078543,0.17156836504834522,0.12766966662970872,0.08002958456958742,0.02650216510818671,0.0028786748040457947,-0.02108351789008365,0.016585596020171456,0.05838818645565442,0.09650004008134044,0.08750321150192926,0.06206835866192334,0.04219636748366105,0.02153247517507525,0.020849286369931948,0.0009747234487344423,0.005718788807804605,-0.0001810854260342802,0.003161352914693943,-0.001285548146971684,-0.00383325961927223,0.002598813766573814,2.1003677320627653e-05,0.0038733044515065363,-0.0040905421554215445,0.008423806362213656,-0.00026488699505994144,0.010409306179298942,0.0073681997966689545,0.022326292577578764,0.03253329951452016,0.04322145404478885,0.0773453997490094,0.12100518631222133,0.17441753792538242,0.19967265737861933,0.16677155199812754,0.19647948511429325,0.2567023034787247,0.714671782411377,-0.02483534247769795,0.007750628297313499,0.28391603949243277,0.20840695835597775,0.2221916645064955,0.1775074803310266,0.14984271908304464,0.1197539822206164,0.09100292480388626,0.06325606436863383,0.03738419104649817,0.014720630762058077,0.004285750373732672,-0.014381991634799342,0.004348351821566204,0.02501807701220613,0.06748783951976903,0.06549299792155093,0.05891403046321668,0.02972061892491197,0.018037038793972567,0.02136935957943284,0.007807157428859192,0.01031662354059187,-0.005991760053676091,0.004244525120360584,-0.0074474146326715795,0.004575619424568027,-0.0015690646596483754,0.002451022313123252,0.0037608631071826886,0.008383205964116892,0.020141798267527263,0.017236841486593695,0.04179173996472538,0.055949459263634,0.11871876280098154,0.1394977217395042,0.1840823660316602,0.14037100625802287,0.19438125925635075,0.18576832197449197,0.614700850358431,0.1381835268332305,-0.10193894180413918,0.2922844969925659,0.2084343889148346,0.2508862802119797,0.199846902627339,0.20558905677453368,0.16640306966001095,0.13613673318034705,0.10025598054504432,0.05600929544172221,0.026159902965484916,-0.017528992812580645,-0.032630194408868246,-0.003038503447383966,0.05814327904816625,0.10299532576366897,0.10230417331104653,0.09910893595393173,0.0759709711211523,0.08770280559525426,0.07542971119405796,0.09820788809405463,0.1039149153112892,0.14661315511714026,0.14251676018771603,0.5415358855072714,0.06358888554132028
-0.06603269591156662,0.17179409720985916,0.3576525611925883,0.2674073457840798,0.2491419901502797,0.1932479535317561,0.16355214651421954,0.12471112205547144,0.07428927701655856,0.03668547677245907,-0.003249274356692282,-0.023800475432023533,-0.031345338939956106,0.03777916392966931,0.07673021768871967,0.09062430339734902,0.06966749991535248,0.03864093677173129,0.033497515370119586,0.024038298978393283,0.019779409384269617,0.016885769326862487,0.04058297392660484,0.047982014476497206,0.11746907830322127,0.20137726703441516,0.21556436516809427,0.17986841785709495,0.20110699814081312,0.3242038510549385,0.7640585655783456,-0.07056532989381172,0.04113504872735598,0.34345201282378135,0.2826936325057296,0.323389737933227,0.2665368935093856,0.2468258766798515,0.1902272030616931,0.15351730214736195,0.11220054815227253,0.06636042676450134,0.03379678111647042,-0.0674019695287823,0.016958965404170925,0.06827640475921444,0.11846622406334123,0.12066564503407703,0.11950119517722727,0.10996066032216528,0.07991590630845595,0.07421962207308005,0.042381478802616813,0.03747619433732355,0.018057079596749365,0.010517601312177383,0.001737694014517753,0.0039099058453094995,-0.004443753011463373,-0.001962684230157295,0.0014290983145667264,-0.003022306163696518,3.491391445469816e-05,-0.004025532025679641,0.006526009618839418,-0.002443542989308775,0.00909069527509702,0.006419559496458945,0.012078478087794942,0.02461999216400223,0.030939959592539326,0.05766680964465207,0.10957333076499319,0.15373055107650524,0.1664851501020341,0.1544122021802638,0.17266940277437115,0.2541906984020561,0.6131389040436047,0.014146242507573391,-0.04873262613343246,0.31959944230917986,0.26350849267826815,0.29645738248461556,0.2728710273359778,0.2720068483564813,0.2578902071261976,0.25681313775750647,0.23849593417559561,0.2281313168811553,0.18398103997532744,0.09949219606164468,-0.04872674107021621,0.10888160783166657,0.2518919694018839,0.27704032443967813,0.27858916956360286,0.25673141331151333,0.24313271603489833,0.2232119381656653,0.21761368256268948,0.21468674513929553,0.2202681176041937,0.2366110041966539,0.2543789452360047,0.3150375803045866,0.524378470817305,-0.15963406121297155,0.12768768225336316,0.34369956744144636,0.28954327229086174,0.2917595948819971,0.21805796656134682,0.20329375613586548,0.1495280991250086,0.11830138640095754,0.06553818930643909,0.02297530519692665,-0.017979612534394427,-0.01950440548626161,0.025062983209905607,0.06821415979679252,0.09263744220708274,0.05888124673241999,0.034551691737189014,0.013583923229015069,0.0016275440814924231,-0.007538294413846739,0.023378693567420093,0.03763664402714661,0.03386143859500748,0.058310078583045745,0.11829454986236765,0.18921299657288151,0.16655369433779255,0.10357380241692182,0.15719734340852243,0.1600138519290671,0.6190360908887613,0.10413382189099685,-0.0907110443031226,0.24616317743503302,0.18141144449958096,0.2159953757823168,0.18005319821210128,0.1788929390629969,0.15014863236282858,0.12368655427858023,0.08119711699353752,0.04864889620910264,0.005069787004730279,-0.015286498139715984,-0.032004282981350954,0.023060754142040816,0.07681653517328035,0.11427871980262079,0.10670722507657493,0.09242714941049351,0.07261042808828147,0.054537889835735,0.04062779203689972,0.022799438327397694,0.020899507779811952,0.0026613223359401982,0.007202744420139175,-0.0018046099919997,0.006383227896605639,-0.004005812365678864,-0.0008244568676638932,-0.0017837621816470717,0.0011826974849635655,0.0027598628899245595,-0.003610279323487401,0.01120594729181991,0.0063357798220053715,0.016376955367672665,0.021964660496760813,0.03600270809949435,0.0641777461934533,0.11141038820349582,0.16042813738116352,0.17197015832919013,0.14979081671506647,0.15529673761750587,0.2836462693581605,0.5886800673529013,-0.08364713913189212,0.05130539480585582,0.2532558865824071,0.20380287283960255,0.21266237352898715,0.1840004628567456,0.16709515213012113,0.15579109972464072,0.11396482279512649,0.08567407827937241,0.05146401113994306,0.02365448524788571,-0.004955704771390401,-0.026259361820462575,-0.01142956217383346,0.03450125822229591,0.08792254768332688,0.09763881685330932,0.09817389254107883,0.07607767997759676,0.06648614544372929,0.0416268978950924,0.034595398929102454,0.022554185963343448,0.0071192498342208385,0.0016484706425340938,-0.004767990213576875,0.010793483736543067,-0.0011913330445822354,-0.00424507625904006,-0.00650225934689589,0.009204151189007026,0.036985670863626904,0.045215852562280535,0.06030666599450392,0.06168417060724047,0.1239690996710061,0.13377072692049335,0.20577206457920325,0.1361615152125653,0.16478590200352963,0.0997749558118311,0.6273521124403774,0.38836406972759513,-0.21109167475613047,0.2876266353592868,0.24056514951616997,0.31323292910265493,0.27204181229107516,0.3029759234982049,0.2858747946240542,0.2891663474187425,0.27274447289233084,0.2245837114199245,0.22494887005455003,-0.0014565488368993324,-0.019486888802229714,0.1312623654041087,0.15818316583428052,0.19504754058801616,0.20723138381811965,0.19563517809515193,0.17068021729593535,0.1411525646401523,0.10068866114072138,0.07895862682897908,0.048372274308458287,0.033419703459701786,0.008388487163761763,0.011432692705803932,-0.007137547725818376,-0.0006712918178460654,-0.007937524674926802,0.003046715675897845,0.002145724487669222,0.011115105276155004,0.030436301231436966,0.03628554191324124,0.08318078398836674,0.12620586955034857,0.18607047312821395,0.18377092657340485,0.20087248741190855,0.2113899820725311,0.38306933249666286,0.6450415464872643,-0.1187306846374899,0.06278350237917009,0.3419590324334297,0.2997810137227282,0.3146972884883707,0.2884778696206993,0.27133177864379376,0.25858436794182926,0.2244651844495049,0.19064095130965947,0.13429536384251514,0.11562426093371489,-0.0056867852790921745,-0.03559736284667924,0.09102516499157844,0.10302592395324485,0.1594832099987501,0.1446364912479101,0.14063286231813518,0.11422667058619734,0.08940982566789774,0.06750746511005427,0.04163894162434776,0.01924442994282019,-0.0007927930887686001,-0.01044420910307833,0.004213671834823554,0.02864218272248102,0.012940070630311084,0.015189826697125116,0.005563202199085795,0.009459567943943398,0.013482453823096277,0.011380549409553426,0.036616969876204324,0.06604864746822417,0.11726346192366707,0.1471011242518383,0.15230330651575436,0.15854905920649212,0.1503017728320391,0.3545893675889694,0.6100182204104132,-0.14355369600910056,0.08973240142232797,0.27149509106601905,0.23520203687847466,0.24797002424556294,0.21906027523630622,0.20429138787885792,0.1864591443602068,0.15401397489781954,0.12613796916269368,0.06875835126702654,0.036155765680349575,-0.012195806335205176,-0.03586265223774274,-0.016079856447127124,0.046697047752732423,0.11058501352700617,0.12524067426288027,0.12441998776640109,0.09333432322436867,0.08046109733136755,0.05303902406738374,0.04047008978835558,0.02408567625409966,0.012310944242878482,0.008247096791367198,-0.007007011517939189,0.0038491974501302846,-0.008737317424141924,0.0008945075539225803,0.0016143424336979523,0.01491368944345012,0.021895081193916213,0.043982129606467565,0.06252395264989775,0.10691866227516836,0.16201628166387805,0.20254755828572357,0.18588651893989933,0.229965196818582,0.20715453825736682,0.5493147677752015,0.5856835715420878,-0.2179064867510754,0.2517189894621283,0.3193445099817544,0.3043611320252402,0.28921688417774755,0.26031807109949234,0.23359012111355218,0.19949053419137894,0.16737838797155102,0.12520748748613314,0.06984127396290729,0.029148805731397224,-0.027276786503566037,-0.026539373137503867,0.0010667138889546468,0.07954574826611292,0.11670047235845642,0.11918490239856419,0.10125861661417204,0.07331044629499642,0.06320738896409639,0.041105582452988065,0.033049180846446376,0.007899511874787754,0.008381178444778968,-0.004261476033506561,0.0015049202289493537,-5.523721125099826e-05,-0.005022929496862018,0.0026523503352257546,0.002398584273127634,0.01830369147472508,0.026255924190573154,0.045999227378847,0.08777236437636754,0.12084440044820363,0.17331727793444016,0.131673873212507,0.18930449920221853,0.15012442671099802,0.600901218384076,0.2625577816769434,-0.15125808940473595,0.2859105992494723,0.25041157454543517,0.2935017573500887,0.2549368692282722,0.2765063666186267,0.24836145258599426,0.23996171743808184,0.20629997527982882,0.17358296899567915,0.13808097422002474,0.06434245312255141,-0.07268654946600774,0.12068434006185051,0.18719627758952923,0.2254795088154636,0.22555798021975915,0.209057725880854,0.21074418255181981,0.18912206744746887,0.19547033338806885,0.19350376337608946,0.2057426319692541,0.2256557150337674,0.28879474633465324,0.6275003532900107,-0.06111537995052632,0.0980297324974436,0.34128479821605523,0.2971511581487887,0.3349570668393098,0.2875614664871744,0.2862329314121918,0.2668961207100726,0.2748626288026795,0.21749476003798796,0.22537134410678944,-0.053531464271271395,0.012508122122377186,0.2576420827890578,0.2791248937425801,0.2950761966477817,0.2604109636798318,0.21220687568793745,0.17160700566913237,0.14858781949418937,0.12569687869120966,0.1114919819601989,0.09914198765950806,0.11781799111261672,0.19188873213634602,0.20713701055666825,0.3705537370984051,0.5784415842183924,-0.1440825059206448,0.13266824992735923,0.30564712218997653,0.23229604944100943,0.22475650066951833,0.1637853786523015,0.16948341453642587,0.16568709878314972,0.13086449805292213,0.09530385163559425,0.0573429685650339,0.010920675933008649,-0.03049108465483156,-0.003227519057410532,0.043151449519192225,0.10056706372237807,0.10449699009967527,0.15028410764323294,0.1656905068735016,0.1783666394847634,0.17586833877716918,0.24679303667134256,0.21095027549078568,0.4892711906880088,0.14590418397351967,-0.11086324832843629,0.2532201557330893,0.18934447713579658,0.27925325676231805,0.2530177040657054,0.24747254726295503,0.2316705513020054,0.19765914044574515,0.1719544007443736,0.12169673908147638,0.11803044113026334,0.017898540381013673,0.008065948652488372,0.20860392657725507,0.2751977802307638,0.3031550998160308,0.29306047661976947,0.30028215060047386,0.4450240250067585,0.5816137874191589,-0.11257662840656403,0.14100504306869807,0.2127666798320654,0.16486560608764436,0.15617443895258043,0.14541421812730015,0.1342142555099806,0.078558211458555,0.05760080308544842,0.021469387006371233,-0.007530416370155902,-0.005940423344738796,0.03548480916123377,0.12141490601461774,0.16978573576349607,0.20338888262593988,0.2291274836689403,0.26090231784769197,0.30362036412225424,0.3380696924911664,0.40541340000107157,0.41363479803709025,-0.07641726337565279,-0.12075669908470209,0.08830394793138717,0.3494719469492585,0.35229937625489893,0.31313690177876913,0.25513090173555625,0.2106325765093334,0.15491163741002376,0.11346864324585668,0.0863909639609013,0.089057807278397,0.12074954911536263,0.20501175797620091,0.27719407354400566,0.3277728088411805,0.2918423836911477,0.3049669275742962,0.3085026143416684,0.440735051377465,0.41984211823013207,-0.10537715380216779,-0.1285026341857419,0.13259133500122133,0.43171418251129423,0.376284204236185,0.36633968007298773,0.28613587281659075,0.23295637401120922,0.16614905055520407,0.10251892933264903,0.07725926274927195,0.06587932510290578,0.10435425431298581,0.166298524854286,0.19755406454060317,0.2109977647891092,0.14649084453700742,0.16965646405452842,0.15461984208105367,0.4036593049894233,0.43455706880887995,-0.16895207572356957,0.17894850440713497,0.1848373486432553,0.1757464729556055,0.1605869449205216,0.17221870412496335,0.11530432456648915,0.07851029329951628,0.04521553523106452,0.019761559369754923,0.01584585394608029,0.015108762843356736,0.06114817529781696,0.10518152715301446,0.16007413996128936,0.1844731742444074,0.2218888443228081,0.22783777240928157,0.25497030085118005,0.35080630286414805,0.5790155829575494,-0.12040915771970617,0.07433520765107987,0.28879741929488456,0.20614989504434586,0.2203208675613853,0.20021908487827994,0.16883739576983178,0.11547317827374283,0.10721419262582974,0.09288067868844922,0.08344743782188693,0.0949813595632574,0.1296131175942946,0.19449045538860796,0.2665439756087733,0.2906726500252312,0.3643356503634149,0.31088083204917005,0.6020080901927555,0.312111804840885,-0.25049385544218383,0.29701125337875195,0.34662495437060015,0.3187538043290105,0.2526293148700109,0.23210246569718554,0.19344608850751746,0.13156359005981524,0.07892867013737455,0.057091334212292906,0.03490022175071088,0.04031808823327138,0.06809057429882362,0.06954054114266917,0.042720366365839584,0.019727220649378874,0.030504171757316827,0.0014478612475322813,-0.004860975525642047,-0.009022755364734897,0.005747894121695796,0.009257914622389597,0.021155769651825328,0.038101834145491155,0.046535507618468294,0.0802577945839514,0.1124201921665615,0.15910390371353605,0.14364435120216826,0.21765357443753905,0.20881057051330304,0.5137296393071664,0.3685722277596931,-0.17599976665741093,0.19080374770631817,0.21235777876429832,0.21085226741196403,0.17208888989489565,0.13223541689902207,0.063102665214252,0.045275304625938345,0.03759729533717823,0.026173454578094016,0.017299760117461385,0.02136017266895354,0.05130803587149224,0.0967346775859062,0.13791746632682467,0.15417745054980625,0.11126560889086502,0.06463063504377647,0.07122798168494603,0.11807557391254878,0.10313591046240501,0.1915640380657098,0.1652246285325642,0.5363721638230817,0.046477594163971125,0.016999648617971954,0.38232351552302546,0.3000259875572143,0.36601505500721593,0.3371675486838476,0.3515041518664616,0.2987221045347945,0.2861200123104401,0.24075707468115326,-0.008127076378459264,0.05057307440333571,0.12741974666359615,0.22834407460039866,0.23124128861340035,0.5035160606114998,0.44712514493034666,-0.055620178379649506,0.21621866163248923,0.16762810204867476,0.1703513352411086,0.1259822618106842,0.11134596284180688,0.06666572953782993,0.03737281087967379,-0.019689557304939622,-0.009066337399504286,0.007287542769727765,0.04646275225546897,0.0898040721688046,0.10629677922640511,0.09373639565654457,0.08533637560260912,0.08024072789716664,0.10375091882274363,0.08603015312358823,0.13388237492909907,0.11751683759735744,0.3953977579478501,0.33939320160462594,-0.15601863460311102,0.19113225820991311,0.18297027143314942,0.18840947384068207,0.15429028595365255,0.1251807579458041,0.07814476312253421,0.0226387582494577,-0.018720773191387242,0.031726553862731995,0.05185869971968103,0.0685325669114525,0.10433121012855749,0.15137085740149178,0.16499969619305346,0.14008656015714238,0.1307126304232251,0.096161759516408,0.1454463139433058,0.06396708870803536,0.3845449932385001,0.2094116331492394,-0.10755776953499048,0.24991848641543582,0.18960006216452271,0.2181873545987823,0.18633651133452658,0.18086667719471497,0.14744197732387532,0.12332319315970922,0.11248110877134983,0.030102133020756008,0.002741799845201025,0.15892268904689402,0.22181037900864425,0.25433395454378355,0.2731771099384062,0.21232153435942736,0.49298124411835254,0.45495576879738275,-0.15258710230771186,0.170461956462877,0.1725573148896335,0.139449459809359,0.09792067906499287,0.13513029062623103,0.10803534978305833,0.07980055547311345,0.051248223958289166,0.03661614276920224,0.03178403149631623,0.08737637931199752,0.15701363921249092,0.17470817469819008,0.19864875469614807,0.23080576622430418,0.6594770126425759,0.043511841832498385,0.029269022086470593,0.23540343790163826,0.15681251086681208,0.1625980083413996,0.11263688577368264,0.09287835983338409,0.039547340130518055,0.0030834210694018057,0.0013079030274801807,0.03161949659864788,0.01849421904240865,0.07064778268513039,0.10483946139952957,0.11103299005646569,0.056550544702393374,0.05692340059762752,0.06512683273821779,0.06433615749883795,0.093433298851216,0.10987715052592588,0.23014561907404266,0.1641011235492676,0.4973327594807945,0.4031744135196851,-0.1777965548254711,0.19139287692442944,0.18865473471770003,0.20667487294173012,0.14741058978336924,0.11960673505963358,0.07588991362244794,0.10732307569116326,0.0776770522276766,0.05549451274492906,0.03494461032818178,0.030464649540746545,0.050146367977356096,0.06609772633773671,0.07362507509850137,0.0443414394545052,0.013834867362736094,-0.014637062864172153
-0.01308659305876796,0.02666311941979253,0.07707952841049079,0.08826562326152719,0.09768748019931128,0.12033519915330598,0.13221596943493108,0.18221358280932176,0.16249006458365678,0.42231670013865436,0.38564176082787405,-0.17909828497650557,0.14189103528506228,0.20437883846704288,0.22790337308467354,0.19291283133923678,0.16320179247330713,0.1315161173779343,0.09611921401453612,0.0649588067337799,0.0437731558076395,0.031927354385483116,0.022580379582172246,0.032744242836931316,0.035835302734178204,0.12888196338741417,0.2268702445731861,0.2510962659175709,0.2512618107872338,0.421653541172936,0.4972196544009723,-0.15270617616376903,0.16562021869666688,0.27967380157971733,0.2377809011650932,0.23763580293662423,0.19254960479433927,0.1605400496811212,0.10083337508869863,0.06143173641860209,0.004909330005708414,-0.016867315066142363,-0.003930335691149679,0.04788296728584462,0.07918045045578287,0.06493101099069369,0.053298705139542525,0.028118680615699977,0.032970192717909866,0.020265350377565352,0.037683043412014616,0.049329054910389386,0.12973239594728395,0.19653826805765415,0.16597870012914878,0.14834803409280217,0.1629796839107768,0.3090235596307717,0.5516142398122453,-0.10078733973569311,0.05553128232358841,0.2685279328264284,0.21241701981962552,0.21896826709347386,0.17435700880266505,0.15334610548124064,0.11910241712915166,0.0753037258497087,0.04768443332415933,0.016095955579418487,-0.00015930419541938586,-0.016908740826522165,0.014082843580492247,0.05558997187581903,0.08673311720564164,0.08546848984534816,0.06219831200202179,0.04724062481590318,0.02438315277948581,0.022519732388707157,0.006431742506720821,0.008528700007400537,-0.0020810904391714274,0.004156533012426084,-0.00032997645117977014,-0.002694537867317368,0.0024604905866575334,0.002836639371441404,0.011623636926003714,-0.00032335178792529694,0.008876917062384217,-0.0035439716214876486,0.004825455926106554,-0.0014796560536563465,0.004506105153832106,-0.0014441327529592035,-0.0020128983676445853,0.007122578634110082,0.00777888525509925,0.053713968460333335,0.07492470761414795,0.1399874481812281,0.16883935658602972,0.21363543791688772,0.15611704163543758,0.21087023437205796,0.20540540456198605,0.6459384972573974,0.1096162815638806,-0.08134666108396799,0.27521397550376253,0.1873691168104973,0.21999330171311945,0.16152380086469076,0.1500142603034944,0.11294488313668449,0.07731809690103425,0.05338067826670942,0.02106476209817334,0.012750265819357624,-0.0022362126465912294,-0.008928026504813112,0.0028184548046449333,0.026063821483429377,0.05998632922337283,0.057600141593367675,0.05552664451130109,0.028856155445746136,0.020555556171306822,0.008060262623648761,0.004338173464750878,0.010142883439982472,-0.0011172447072814323,0.004600152398170637,-0.006801669683410801,0.006822981867435947,-0.0023396772301652316,-0.0013517741062998548,-0.0021644896332066598,0.004579972530778014,0.011604080362551563,0.0069435746365397125,0.023747296051281945,0.02430174370629707,0.04858117294535438,0.0886485881560031,0.11558860442095319,0.1514243851955035,0.10613708918947909,0.16019756282084593,0.11626685709042921,0.5623181006797768,0.1955034110695181,-0.12605413445055078,0.22207623516102024,0.17341876002311443,0.20287267196405365,0.16771107230078336,0.17288084392022657,0.13377934950261725,0.11969050087801443,0.07326603173337365,0.05001582045778374,0.012337084240045022,-0.0064251618188499665,-0.03161471345947888,0.00315934738676991,0.052529087321701,0.09308892235487769,0.10177961807411687,0.0888610257741627,0.07259824435035284,0.04808290720628194,0.05066910452421512,0.02033821750650961,0.020074387270589383,0.00533339033383232,0.005356485053009252,-0.00046784979841642623,-0.0011065620563777483,-0.004628634556738462,-0.0022447205178885935,0.00366957089847554,-0.0019395766036751701,0.009551038973293225,0.01916869579179772,0.03460207484483432,0.059539539359651186,0.10771926858847053,0.13953085254874326,0.13563721773429266,0.14309197011819552,0.13330272536304322,0.32121733216351817,0.6686192232506362,-0.09382328967382488,0.04180599861502114,0.24109604221222286,0.1799723730231883,0.18458642331522293,0.15916329275039354,0.14740790218216165,0.12558679144171062,0.09191786247018763,0.059634827842245344,0.02189314733171317,5.385066700556181e-05,-0.03338098318242099,0.0038409650341749064,0.09357582552816536,0.127083266495612,0.12466119834429709,0.12346713441913516,0.11733759436238372,0.12225243055301313,0.1333149814997409,0.15169181495029072,0.1492902282222087,0.2125726458646131,0.17922408120071748,0.5628433607135704,0.08441790477160406,-0.10363174776845543,0.3156748499729583,0.2564517851656995,0.2576514930046537,0.21564213098606186,0.18447591976465125,0.1382834185032799,0.10497486973295736,0.056531789625042114,0.02168548356575574,-0.019632333810674554,-0.005908358016975508,0.030790300654663184,0.07716534929403206,0.08024166663267551,0.0645925044117791,0.0466120801710463,0.028381659641145966,0.02648630085459183,0.013025171481106703,0.013658775973069479,-0.003384698435077223,0.006237619634803842,-0.0029327777427146456,0.007600786727530871,0.0029648898821648074,0.0017786593658507875,0.012331012786366032,-0.0013640038009730946,0.007383999744239484,-0.0024383564350803698,0.008688769483617314,0.0003395526369689678,0.0046478189997231,0.0030507229103897966,0.003300638879572958,0.005380537607007869,0.002858971329951007,0.007049372055852425,-0.0013930953747950175,0.00824612607771715,-0.0041778059993129646,0.00554049866590142,-0.001062000938603559,0.003471322245940329,0.004025084823939891,0.003800208939538104,0.019017470223336885,0.014336814878758276,0.04350132734525023,0.04139159862260487,0.10059193787521784,0.12590459550082803,0.18513618277575208,0.1536433568108689,0.17886064391142442,0.16583435790492573,0.5009030947443642,0.3820114436082922,-0.18721114206131387,0.21706486069111916,0.21963414351209418,0.23406184529506432,0.1965459454329765,0.17951186499934166,0.15280072877292852,0.12093459204139793,0.0930491041434688,0.04604093364790705,0.025698380738186147,-0.007368321608249964,-0.01999123252101016,-0.019543289167749722,0.05106272494939568,0.13792341365670083,0.1394518194875903,0.14674698021575544,0.14568167155852002,0.1540293569883858,0.1569669288413735,0.18646547065015084,0.2075502384534588,0.24484303188893808,0.28091799393335215,0.31209309772862565,0.49340163067211606,-0.028578833529048792,-0.13289765664099407,0.27785945255619243,0.39666650615480936,0.33492944101077,0.2989510211680732,0.23342013403297357,0.18614948659975963,0.12945143607799145,0.07001975853833953,0.02409897756010694,-0.013731287868587507,0.01477380448569888,0.0551908566200398,0.09413376312407945,0.08024219511757705,0.06259824373698733,0.029641883504393354,0.015187232897903531,0.009026825783406982,-0.0017206321264856934,0.0053646117876003435,-0.008936349017967034,0.004854356177424158,-0.0024983889535080944,0.006974502921311724,0.0010320072899671117,0.010646518773027119,0.006771812658066856,0.004336630094876521,0.008319379861099542,0.00118928866838686,0.01336458914660415,0.002658222111933479,0.00982834217446458,-0.0008862581778010986,0.006701529743078436,0.004401415447572431,0.005283408038253323,0.003384305301390602,-0.006085266239965198,0.0054655554258582085,-0.0030805043644946983,0.0028481674474140723,0.0012315950649362279,0.006082508721073301,0.015928535548230677,0.02309838952270748,0.04203171626041648,0.049904754422469604,0.11594148506270839,0.13532572200203247,0.22159371974297976,0.15716364737833782,0.22634625901356084,0.1481446704312504,0.6350785952623617,0.5009722638161375,-0.21910421202338262,0.2779731328877335,0.2171943248424283,0.26455992858680094,0.19873512277272729,0.19508016532001143,0.1538449383576039,0.1267477751069087,0.08998464235784766,0.0494048197556199,0.026148906259452997,-0.008893538169783107,-0.015354721686132094,-0.01537977286413568,0.06703312455282298,0.1430225979057721,0.14248545999684234,0.13935753761899197,0.13883431883941735,0.16517744072312107,0.16681259757296701,0.22156820788016238,0.2223272957762335,0.30853254960446214,0.27984794413056646,0.452232532353022,0.3335781315278341,-0.14943330417993045,-0.04566056547637092,0.2956183297535806,0.40339957102560114,0.31752860409383044,0.3021176034471164,0.22383044866014196,0.17971659051479635,0.10787820996672513,0.05806507284391612,0.00694344077001903,0.005676071060883479,0.04798193067429381,0.08778849519471923,0.09260395971569883,0.05024457210236582,0.01623914726616819,-0.0033638022507420334,0.004817100840184037,0.0050542142840567855,0.024790620997882595,0.09345303978607436,0.18317167458485514,0.13966671077352624,0.14325447612082448,0.1314465398361919,0.3699807569348245,0.61647730486285,-0.18586409539155846,0.16688015849011464,0.24243474566237647,0.23359291589334352,0.22983711968231268,0.20586142255322049,0.18896166991592256,0.14923347104508752,0.11867947970662393,0.05205483301140772,0.019375979139413895,-0.02509210907544019,-0.01959937826364347,0.025423258088346612,0.09090196510998524,0.11585686881644447,0.11283566396167803,0.1017287553138702,0.0840453113960968,0.0858940498834263,0.06019972799039221,0.05917362694110747,-0.0002150411298389709,-0.005723201802571264,0.0038732982072737943,-0.0005529972592093704,0.0024578333838855752,-0.00351881274839804,0.010675117509707685,-0.0034507657911577315,0.007552649629872255,-0.0020014679444043393,0.007351277516754029,0.00868569678188776,0.010057760560741957,0.013819771369932291,0.022769268332665436,0.048824279883733154,0.0501962791122739,0.11562812727717113,0.1383895843212087,0.2050531939330491,0.1478106849167874,0.202554219442051,0.16780629226922883,0.607159256889112,0.2690839973109992,-0.15917223193278987,0.2563838140246523,0.19854476948581848,0.24098130882528543,0.18218005321578568,0.18031577180740505,0.13844546036739805,0.11342395636953928,0.07627841388137609,0.039445552640159975,0.01418324536959757,-0.015365701239955717,-0.01787386517522513,0.011626618540144566,0.10325675103744554,0.12565658572553767,0.10037578621429478,0.09034095972896442,0.08011449245612637,0.09794056054130164,0.09111128390460654,0.12856830392126115,0.12598900846821284,0.18825665649998835,0.1740355305385303,0.33541029780468895,0.4818973462057507,-0.16457830431537862,0.16149505879533077,0.3515631829353161,0.3239712178178262,0.3068189465842784,0.28536275438275416,0.25377630528292733,0.2475610574289156,0.20344407959117516,0.18481954153359612,0.0969111801410329,-0.049403719055681417,0.15923991535296628,0.15956023735913608,0.21243781474588663,0.17373545137396268,0.15425547294810024,0.10744781395018407,0.08960955677669194,0.06029865876315054,0.035970740990495124,0.023543849574923625,0.00432043825177579,0.0055627738171667674,-0.014822757863393038,-0.007014122931108116,0.030237312995873667,0.05543774739892711,0.05838046943912659,0.06610147531287602,0.1438392909110023,0.20762822672603692,0.2175138805242372,0.1435339636755877,0.20657655435099925,0.18915401938879411,0.6303366161450966,0.17785239618021917,-0.10884676624474955,0.3108637764297643,0.23464584811291112,0.2724903813875198,0.21265206103529063,0.21725781775771,0.1684457220405621,0.14971342227149897,0.09460102997750139,0.06241838242610843,0.018840331596818066,-0.007143788121557409,-0.028774873142589075,-0.006503293732454598,0.06251489161522478,0.10045895570619039,0.11731943706545778,0.09047714821832283,0.08339421984484743,0.0610588122682602,0.050666327357503343,0.031682330563328226,0.02055259590905185,0.009159747626839024,0.004123532482794543,0.006321428511038365,-0.005581736724259645,0.0020375836916825536,-0.0027034180849464756,0.008600309371800998,-0.0018900530523194752,-0.0022404198479948046,-0.001994573413541647,0.004091350391022217,0.00940798177387053,0.004455011686568861,0.025110959709852203,0.024134778303663666,0.058926910650438216,0.10431402952021733,0.16499207715552944,0.18613757279636295,0.13029980354087062,0.1743757319714533,0.2106659699788959,0.6638187058816108,0.007046166345283786,-2.4069048889339032e-05,0.25050506213041346,0.19116382892761008,0.22091639070207872,0.17471979036394447,0.1756627015754619,0.1372869299140338,0.12514392792266127,0.07035747979127698,0.04296739388182533,-0.0014874763077266319,-0.028199217655809614,-0.018397170668612055,0.047986237341680255,0.1022504360305879,0.1099650504644002,0.11978718278316736,0.10802372197368902,0.10986916317516164,0.10511312444814355,0.1057146412524276,0.13417218935507436,0.11730354098165144,0.18484106530884425,0.12285426285898152,0.407953399869902,0.3251420979404721,-0.12533233070936672,0.2750023974904644,0.22633865074103007,0.2340721325593002,0.17282418952336942,0.1669140172389503,0.13466344193299967,0.11273201487671419,0.06342893615745107,0.02941212218927609,-0.016383942422797337,-0.028106194463574714,0.008014255826123291,0.07166884463061164,0.09696400147616854,0.08582987733718493,0.05868532960760215,0.038615488442281756,0.03785827959282303,0.024846491530345332,0.0333065813857655,0.03316538549430173,0.04645323614771604,0.09137218725546124,0.18105381709866925,0.20339865165688095,0.13953479724901613,0.1776667437415695,0.16631728265446122,0.42329278094619555,0.5709277025076459,-0.18536898949913858,0.19302151167565473,0.2850442059941893,0.2698184962119974,0.24641522420242729,0.22597393912730337,0.19332757830636302,0.16333425520394404,0.10914071084267665,0.07262614921680591,0.017290152525730962,-0.009875829830904119,-0.027697325713573643,0.009910916559415166,0.0722268908088979,0.10604598408928766,0.09845572238682988,0.07794178347110418,0.06209435076911006,0.039675862281633625,0.03782183211687139,0.01689665442562757,0.018814631074010223,-0.0008343721491752571,0.011243664104052009,0.0023922025453029863,0.0002666885837695122,0.0015252269433598132,-0.005212338080961613,0.010140654849136918,-0.00032762613104612976,0.0005726189043727735,0.001028759783589342,0.014418748178298765,0.016735948230382228,0.024861807647793468,0.0061303007912672175,0.008126754180958049,0.06440518833051954,0.09415895882869249,0.1675096430943895,0.15756803335606426,0.17017231047863948,0.16300638173913817,0.3733716999998325,0.751408329050953,-0.12395302081023724,0.05172926655441723,0.299534353219731,0.26207680419634266,0.26701739330511093,0.24619066694180472,0.2352742985993884,0.21578001850033962,0.19343728812164115,0.16427218107074668,0.13102872185978887,0.12225433460485371,0.04605166919270189,-0.0337448252828157,0.11535300638816338,0.11162682420279695,0.153667252660843,0.1421756072965658,0.13403571969865005,0.10955371465963053,0.08381701375113111,0.07358305859667529,0.045350176565574024,0.03782205138834538,0.016674664326895627,0.010001437980886827,-0.002890981896872295,-0.004662200764552624,0.003216438318196283,-0.008248799856409502,0.0035779042287971967,-0.00733407941386351,0.007818093685628202,0.04334616119328146,0.0599075634181871,0.06673950262759412,0.09914486553754605,0.1449016071592521,0.1749626571074122,0.18149122914844118,0.17826145968251042,0.18659443463800712,0.3564224584921628,0.704205912823586,-0.12231710355791603,0.08964735546262638,0.29975407919182506,0.25272143335489433,0.2696849426738521,0.23293630380203295,0.2267119158367808,0.1875597961079539,0.16161467098095572,0.11131716188634831,0.0638129538651877,0.022260686180876104,-0.02247105404389332,-0.03113533576271521,-0.0009389934107796153,0.0737749579472215,0.1092659109125874,0.12368046823913954,0.10474426575296078,0.08888657930635602,0.06982077977770232,0.04610242063764113,0.03877615600978572,0.016166547706771933,0.016630825924971556,-0.004294077721364251,0.003496189274727407,-0.004290450785154647,-0.002465815821707962,0.0018688423689418143,0.004804456948952662,0.01699790285351018,0.021663764350109256,0.040550500540371674,0.06300265825972559,0.12988947068720452,0.15301134645204706,0.17452014990267795,0.15732731825139445,0.1936878758562962,0.2730890329811019,0.7418343557389115,-0.05217051338714978,0.04207130731104898,0.30521529870171504,0.22906240947257567,0.26617438874209354,0.2109646013610777,0.21868446303617686,0.18435205429245372,0.15537327871089815,0.11138421115287547,0.05728305293441513,0.01952703940427116,-0.029844357952345118,-0.028068419836355527,0.012017843464427434,0.0837423785753379,0.11755976285379678,0.1213174983565622,0.09739246032579216,0.07964447485985299,0.06599666739061615,0.04013766012289995,0.03846826441134036,0.016296215551220076,0.016260195321375803,0.0035943718888189887,0.005982915931318998,-0.0006991465017342063,0.00021222679889501732,0.00241303096673091,-0.0030445649974710294
-0.008265138202365043,-0.0007935101335402367,0.008471943197965067,0.03152896322057062,0.06946716486823427,0.11497051260757891,0.1525675051270661,0.1337640077043664,0.1560294932271149,0.12407628794992703,0.39111027856667324,0.5869441519776257,-0.16464393410696815,0.14705440393825248,0.22103595810800516,0.22045018766269486,0.20829585100547635,0.19869398198891428,0.17790955381909296,0.16017342236794957,0.1195924044894945,0.08757886774831213,0.039486913717186524,0.008308991172113601,-0.03253982316361809,-0.02740965890587788,0.036674469926922436,0.09527014666115063,0.1284309072955719,0.11321278541395137,0.10638258385986689,0.07251430224069193,0.057051768481139964,0.04103714034407119,0.027602810376797883,0.019663120120172784,0.003513009289557596,0.0010787061207476584,-0.006455774572918868,0.0022666408005714185,-0.004678206460195972,0.0022252822731922933,0.00563927754526092,0.021320664858928664,0.03605562798117255,0.050604661864524954,0.0966837546483404,0.12412174452529938,0.19367541607384445,0.13326851602619258,0.20954567140525185,0.1458345148659986,0.6220258866862052,0.3885640595274194,-0.18838718589643913,0.2584227299316654,0.19102892797710663,0.2636521781543129,0.20714867589525918,0.22790683959037403,0.19467871453923563,0.18862624543872597,0.14994046417289192,0.10489540759454877,0.06328131233691354,-0.043053276164361894,-0.003822904116158952,0.013428697111685275,0.07969904301081424,0.09867639601768817,0.11242095434071946,0.09408386680955114,0.08823879088332735,0.0661818750795063,0.052392750974994094,0.038163240868027186,0.015551886469646385,0.01497091138892631,-0.0027185621798709613,0.003900463199625103,-0.005949957679116143,0.0019335645094034153,-0.005895825281027443,0.004727394245980738,0.009227098261022929,0.018701796935502404,0.03529959210625417,0.06402065721649788,0.12248789957709462,0.14684833328428423,0.15734222543073995,0.1546011426227157,0.1707506153635169,0.34184283560651924,0.5805091889485621,-0.1254057103018918,0.11494019576291849,0.30427880298716636,0.27523518249050505,0.2989833439059151,0.28716459279523654,0.2999360766161448,0.28626856570167575,0.27356851320547726,0.2528649825801655,0.20098558605700667,0.031437087142666395,0.0010196442195769145,0.07242511750952649,0.16262845902838918,0.19518773092826355,0.21771058612360325,0.1959838320972471,0.1759363212689964,0.13517815618364992,0.11720392054239344,0.07793585908677346,0.06264418216060776,0.03137335398350051,0.020768013503201354,0.0028511291224079544,-0.0062967812162843485,-0.012113520700155611,0.004530971555852668,0.022271452511223363,0.011542990645433748,0.03318726035003155,0.043107206202161324,0.05985323381721762,0.10102655605316059,0.1365407977734375,0.1834159222044268,0.15152194865304244,0.2059376902209189,0.16324204149765795,0.5159599758099281,0.5591301462546395,-0.20220859827857476,0.21287985685674704,0.27990413060850977,0.2856833856913937,0.2631719632504378,0.25497399443667235,0.22557515450822083,0.20671783655167417,0.17346148459835478,0.12934557094157834,0.09796035499759438,0.009064979871287538,-0.04356786940050773,0.0027426141530641746,0.03693421408364107,0.10042287088564997,0.13493565898386126,0.12212676265145796,0.10313285010414114,0.07481846174774179,0.054829768618840855,0.042640737360649016,0.021922268183522532,0.01590409458735056,-0.0002982087288707692,0.0026896109723461873,-0.008272665042751006,7.690125785252065e-05,-0.0034315307219567985,0.006956675629594142,0.008725747165056034,0.01540792601271488,0.035703722134513276,0.05325320314576138,0.11366467015975096,0.13445228638039763,0.16764131435638913,0.14100859550336678,0.18779071017605614,0.23951276930060633,0.6532717545981992,0.03137686503511481,-0.03345466771209592,0.32793008787311145,0.2358759333657935,0.28996318257474263,0.2429349202145461,0.2556104464208202,0.23236521194776155,0.20589988424594927,0.18085302774752332,0.11966718180270657,0.11381866832139044,-0.04774924491019719,0.003832876521405626,0.08786267722623212,0.13115346087301544,0.1684717315950637,0.14887803267427197,0.13312020397016966,0.10074698318577036,0.08642478525079653,0.051112754514531976,0.0394775314172437,0.015928062069717572,0.014515414943366146,-0.0032498181554406922,-0.001435955989417101,-0.0036439314316448488,-0.0012345600444095845,0.006578910276117941,0.013750164514752824,0.03313928054556655,0.03902601796349004,0.0855122158460974,0.12980515629791942,0.1829366296847781,0.1916072811706551,0.19166094929854396,0.22335629466640153,0.33939963312352117,0.7858696017625908,-0.09871555707516787,0.09753117565353005,0.33658742819727344,0.27367595836846603,0.27945872737346916,0.23395685494094554,0.229169854535347,0.1864196055123029,0.16240215864658314,0.10200290552361775,0.06080165761381966,0.007319709936705601,-0.014036146898707146,-0.029852447652271748,0.02989479088563804,0.08214076127292079,0.12071988476803844,0.0814395429319882,0.05091777488833876,0.05199333904662539,0.02449846488516179,0.03201967702932163,0.013818836304003502,0.010266261746939702,0.0018546945081629974,-0.0005238964816392144,-0.0053413491603739255,-0.0016443940895173842,0.0030989674253494755,0.0033575583567907355,0.00884943669915848,0.01155227533959637,0.03614084793113715,0.06219841983645274,0.09875891243857449,0.13654269323001034,0.12783665174111203,0.14655470332105458,0.1419821228647187,0.3840333225008974,0.5654400125059417,-0.13381714149313848,0.0778949206026995,0.28055846102967585,0.25511429237449096,0.2686757633156107,0.25386922603670364,0.26218235333804774,0.25431544587825233,0.23527502691285004,0.20440758505131465,0.17477135477374944,0.1076420109372645,0.04710382756246,-0.01843306857319874,0.13911939806428586,0.19645216310410335,0.20276418487450656,0.1812313506295969,0.16153170278721668,0.12611632309811874,0.10813961888853132,0.07215691603272507,0.05381399271811742,0.027712034889876582,0.021187598670566833,0.011382675799574974,-0.002466435290491124,0.0011953325430237563,-0.009040821405378907,0.0026798493239584232,-0.0015943141763713575,0.02011497489412657,0.026483362168797275,0.04883235069303508,0.10760454198274239,0.13036285509439385,0.1755585530035131,0.14762979030963824,0.20524439366018482,0.2171253505031004,0.649237405252084,0.05113989943708716,-0.018103358755370027,0.3247141909523738,0.2629814424102403,0.31890616476372313,0.27963195523994083,0.31087512319185856,0.28424063259357296,0.29732374909033044,0.256345646139966,0.247627576229751,0.17126569932492802,-0.010029749049513176,-0.005985028815592465,0.1473515108148367,0.20994133134625304,0.22897463062377985,0.2571184416848522,0.2094091906565223,0.17986183550491472,0.1323383359423557,0.1044286892424495,0.07511220564900785,0.04424947682879537,0.030411352584418284,0.004670747218516131,0.006075090261599837,-0.007676732095818212,-0.0025489311338063353,-0.004268102873512767,0.005190370205823322,0.012535789939142694,0.026829966549153234,0.047347015878562625,0.09035374246997702,0.12448615343499028,0.15905972257530915,0.12942277379695896,0.19619908431674782,0.14101338378209075,0.6181229461038764,0.2571342678335924,-0.1505646218079185,0.2698219191882511,0.19857870073962963,0.24791676103419005,0.19862901288035423,0.20406266806479595,0.17749130263853075,0.16414705618516084,0.1229979612537675,0.08653717823417036,0.036948412961844784,0.0033444702361859315,-0.0396734965216244,-0.015246468527122504,0.04567633161560291,0.10796168191432622,0.12397769514288706,0.1089235201876774,0.09357110582041911,0.06474022303256508,0.057387463065722774,0.042891496953452034,0.02767696239831683,0.009375638224450193,0.003350699962834132,0.0053197625262630345,-0.008553425857152222,-0.00047699103661208794,-0.00706286322011866,0.015197263431022782,0.011274991290502417,0.03587276672759602,0.04191063990961343,0.08813598801135318,0.13621632567429404,0.16975443772888418,0.17483350716175136,0.20256873732265046,0.20082769140482024,0.4570601366458324,0.7987364093691546,-0.17617189007840592,0.15453809831591514,0.35143523968139007,0.2983189314131053,0.31548134340201406,0.286638540979641,0.31132358980203684,0.2757104954250279,0.28717239726823773,0.2312529232231379,0.24652705580884066,0.09052371481486286,-0.030029269032377164,0.10962241000717404,0.12748189614738806,0.22267698900789085,0.20132780493474492,0.20540917858207086,0.15389981912915682,0.1336103653241105,0.1009976469973589,0.07031000680432564,0.055328667607189276,0.021198841673565314,0.01856305750668305,-0.0017603066355577188,0.00948300633985126,-0.008689090195416044,-0.000514721950871156,0.006866958716059663,0.0002921824583301834,0.018252337007923777,0.02484452847561002,0.07733641659244112,0.10021302647898554,0.14906084163671623,0.12479481961861084,0.17177481831092328,0.13745446620331017,0.46616119445595705,0.4442322927336724,-0.179631567696247,0.2028000552671568,0.24462583276461541,0.27886483521923433,0.2602064811074465,0.27430768239502684,0.26702715724173287,0.27135287262029245,0.24697021119645995,0.22486599812604438,0.19233048744676168,0.1349094610213303,-0.02290234357601705,0.018898466611704183,0.21138897111145716,0.2231748566651953,0.23732461991841264,0.19190371191406064,0.16576557519550747,0.1396422634972086,0.1007933933147647,0.08135023211986188,0.04810981733259465,0.032611938340825354,0.00894283028267955,0.011391542667491764,-0.0034720473984761633,-0.0003199360658111557,-0.003696364064661123,-0.0012187235829661208,0.0035465581118561637,0.01010296655647373,0.025100129704778616,0.06027113637566753,0.10539631786774546,0.13055847869528459,0.1277241906745416,0.15153767870903462,0.13884850249977645,0.3957801021814391,0.4696910630547532,-0.15725380010170661,0.13510887508813818,0.2665270297777638,0.26147937556005124,0.2660014742474128,0.2562431688049162,0.24976264873172074,0.2421017486593969,0.22327151421936295,0.2012127769956861,0.1591328727147318,0.12488191013384843,-0.052732925535064944,0.05024364569042632,0.12238959732826861,0.16170361576165193,0.1965200028095802,0.16876704188158637,0.15334125290304954,0.11452100308769975,0.09843931043536235,0.06968962983779463,0.048220815232460745,0.031135737547397718,0.015579112015339186,0.00842964700824592,-0.006812461172906066,0.0004109269402329643,-0.006887123811993384,0.007242446299428303,0.008157996168656749,0.018014031093851503,0.04037867190954197,0.04540979682539032,0.11810255644481416,0.13516059004397984,0.1908573561062627,0.1411220623359753,0.21378028428571189,0.17155707716186858,0.6639989334878402,0.2420482157839591,-0.1370585376403527,0.33100280527771253,0.2294825188547377,0.28564295961356273,0.2223454764674494,0.231290723977768,0.19483305709745782,0.17134170744061297,0.13601694363474423,0.0892383656736666,0.05105354183851877,-0.0039058164653842375,-0.028382908027712202,-0.02456071497972112,0.0441212725910881,0.10816779034669469,0.12124615727108365,0.11502540725626276,0.08794509503619051,0.07745866195644299,0.05043423661543381,0.038550449106045256,0.017850930661216517,0.011618861512181899,0.005085543053543848,-0.0053476738166850805,6.360303210565285e-05,-0.005616387339028877,0.00773611512025272,0.005358149477433707,0.022562779853774417,0.02991041097562557,0.04390176500166233,0.09465950331272538,0.12684417718600144,0.17839150783666538,0.14082158662160585,0.20292474047384668,0.1452226481838297,0.5460771715906053,0.4279443777661574,-0.19903733290227563,0.2599405033845885,0.22742859166087456,0.273172175656959,0.21895969903474846,0.2289206647695822,0.19556353910206195,0.18113105063617865,0.13827487367872013,0.09837639943144381,0.05341387748643334,0.0016864433355097777,-0.02791987380025921,-0.027933232953752128,0.03905092442612505,0.0942226509403277,0.1269816380770192,0.10857731349884274,0.09563531475185896,0.07332034191721405,0.054193791862152715,0.04689339857496456,0.02314533457294604,0.02436778475803734,0.0006821708551206901,0.006890572462852891,-0.005693558103330472,-0.0036410903204517958,0.0011568822676180552,0.005845328122459827,0.012407623555161186,0.013185326079101306,0.028506910709338126,0.0667101881076465,0.10095893815664653,0.14122379428805606,0.09682163444483687,0.1570707765812042,0.0891142347833173,0.5717488576634097,0.4589328120317379,-0.18981602967013525,0.18956758876041804,0.1843663208645594,0.20781265929330106,0.17852760931813527,0.19313780899446242,0.15714566179443654,0.15701494818258327,0.11938210868142818,0.09111668693188829,0.04337625780090227,0.008460957010830274,-0.029972616319148472,-0.02226319967845101,0.03796117789897229,0.08948899219810683,0.12431873007579462,0.10061492429282111,0.07676931178925661,0.05705554474743884,0.045522846718375705,0.03068637208387345,0.020561086122111983,0.009017544263978968,-0.0008165468926449816,-0.0005167285468328304,-0.004719611104868844,0.0061141325966238376,-0.003475957343868835,0.011262356680720674,0.017892053852328112,0.029532534839435028,0.04294738747033852,0.08821418782414893,0.1258445181833491,0.16452259145227938,0.12510125562836824,0.19346047745804396,0.1384753948011772,0.6399293400414137,0.4405752547086019,-0.22446833110753814,0.23529411192985838,0.21602012300484272,0.23764470534007742,0.2064546914239244,0.20968402531214894,0.17579169176043005,0.15606875705197504,0.12105231141572499,0.07845177918708945,0.02320559920738574,-0.00654867143171096,-0.03684180535941201,0.0047903227539133255,0.08533677208087524,0.13647171072641062,0.13821754659423027,0.12653689055430042,0.14080557018942633,0.1375272508425237,0.16187144875773873,0.15708782743221097,0.1927735692247401,0.19009226038968124,0.3288887822395514,0.5526445403131856,-0.1357135203707615,0.15069536510361992,0.28499425210848306,0.24918585496787576,0.2401655300054791,0.20321653198114575,0.1632681882259385,0.14464594965770822,0.09308944185971808,0.05940913575729584,0.016281096698631703,-0.02764036408536891,-0.02479537195470065,0.06150541975741055,0.14890149640402955,0.14264810517696275,0.14258570835461634,0.1026863878194757,0.09008620633142117,0.07630234944660923,0.09036392080873677,0.09319465917288611,0.12902281856229403,0.12411044316320329,0.1594688573238192,0.16861268716558792,0.6496587819596499,0.03648299715282354,-0.01231485624104807,0.314438608196003,0.21475875845394193,0.24764665911415618,0.19959909372802848,0.19662764825256443,0.16863532548215604,0.13884278410396045,0.10371857555313253,0.04532780886343659,-0.012307937960830056,-0.051363467731895186,0.0333483912442162,0.13549915152914493,0.1762430078626348,0.1899996822193517,0.1715784947040347,0.181321880105742,0.17328159914993146,0.19715334430507817,0.19628214005513972,0.23606127859015155,0.29347510865164284,0.5268159017468796,-0.10232606809205935,0.1401790720936807,0.33419649059948325,0.24022072867519395,0.2633121426936245,0.21688014688033685,0.20422727101455718,0.16900559908074397,0.1317390349057619,0.09481517425182365,0.029047817249248552,-0.013355332480303935,-0.049465406698500115,0.07288449027572946,0.20142703161874842,0.22704806085493112,0.2258296701524478,0.22435971041050262,0.23561463040344774,0.24769101813586306,0.26243748982633086,0.29969713574747503,0.31769581527924373,0.6619345696520604,-0.09242838140987791,0.09199633050117631,0.39804308969462315,0.2994275111449916,0.29748880271885664,0.2369867546076776,0.21656104949519114,0.1677863138550859,0.12617707397398575,0.07735423818535275,0.03823979043477181,-0.009497316536786909,-0.021210667543981168,0.010286935332512228,0.1784715022149343,0.22798842452234905,0.20688705983064218,0.22567045902896357,0.18377558365383745,0.26708111480705143,0.18658850611190325,0.6521358211830465,0.2594358353043044,-0.14565685068881173,0.2828739255034649,0.20395060430355028,0.2738648966814489,0.21892849200666115,0.21043560325722432,0.14374806998649686,0.11667631423177509,0.05684467381833081,0.025476424107263904,-0.015839533966527007,-0.022847680557307067,0.010947492385667541,0.10368231095425975,0.12303976053053545,0.12530161149061125,0.12098724423858087,0.10065617088713377,0.10465203157947414,0.1024259611623274,0.12394664963802193,0.13958360361843566,0.1644115017110068,0.1651079186861243,0.2860750545418378,0.6489205967149708,-0.09870105857555928,0.0990103857829448,0.30795323336846614,0.23695197096128617,0.23431411762432067,0.1818668542241891,0.1426476950448226,0.10202103273767076,0.05766856873475417,-0.0031862700336472783,-0.008612447959531033,0.006873413665714368,0.024572676949642172,0.06150691841180516,0.09547736089993344,0.08149806919330267,0.05574968021072752,0.01667304291108454,-0.010656966179632205
-0.00259653550807052,0.022725412989774672,0.021746952952050744,0.03964434407293954,0.04423051856511945,0.15485498137791567,0.1764120611973922,0.2620629793015315,0.21814731624479125,0.5110496278380017,0.5945613755908405,-0.1957197039093198,0.23878727379788148,0.25716318025946816,0.26104187701330345,0.17763155657379,0.1456899127131535,0.15727419988558183,0.15921094245079173,0.10978713468704943,0.05685509221694507,0.022173284123129352,-0.00460976021754893,0.008961780579277556,0.04899781226229744,0.14718350059255697,0.18458509376129761,0.23301787680732544,0.21763731943957984,0.29533523468914835,0.2692091549643897,0.6868088274451412,0.14869549518011,-0.0916568088256509,0.37894848284978744,0.2411535895529823,0.28593040769879813,0.20809538088616014,0.20252829329487815,0.14801598960450132,0.10220944952878235,0.057043491907648736,0.012095838731989604,-0.013896070019136177,-0.00490801582164468,0.06037916874485674,0.08900035549231258,0.08658068911688963,0.07614478855353332,0.07316050622249146,0.10228015526736871,0.16214578864588222,0.2346142767597572,0.14874158397616907,0.20004817882464124,0.13699210669525658,0.4684103336943467,0.5277203602196195,-0.20530943287154324,0.2551568377012832,0.23537427111630663,0.26063200090288663,0.21288105126803647,0.208764932188114,0.1729998192605942,0.14962997041266618,0.09817404441968236,0.04605895341107473,0.021417520591042436,-0.023460521917471326,-0.015641559181833464,0.017988157797478574,0.07510238301631425,0.0916755674017188,0.08114391824984174,0.03957504193274018,0.03959098048528735,0.042803518004008306,0.01846580309538068,0.03087498335652355,0.004587719184566749,0.012255486701349447,0.007603608387287716,0.029065686167978097,0.011503727266382718,0.01901395424414211,0.00817443831963632,0.025407846124486527,0.007270026916254336,0.0019942886110211333,-0.0035205907637323296,-0.004492547510483862,0.011249562112755726,-0.005463261333028903,0.025877498201162568,0.023428991443454228,0.03980416089634777,0.05394860883034315,0.05114721208502162,0.1186564331907341,0.14148649629418084,0.19394899563421394,0.15987829964988706,0.21479958421711542,0.19469533931245223,0.6028105395000025,0.13128976854860355,-0.09206663295976139,0.2856809848405615,0.20421192412758016,0.23513755275473566,0.1643066838715681,0.17507190818067436,0.11242295603051645,0.10444168740071658,0.06153056929521299,0.03817097475677121,0.014410656466264,-0.008481684631192954,-0.01224668013188475,0.007922356168650817,0.05819423780622098,0.088296620549401,0.08334781870600627,0.05957403640976049,0.07201852153114904,0.08285217118147306,0.09182250386863283,0.08423267376271633,0.1454972870650622,0.15319541695789587,0.2071432972140768,0.18353715527918635,0.47057379904681435,0.2819442567530867,-0.15429477616868784,0.3192915313560236,0.2567575333502064,0.27087261342140945,0.22729472099783182,0.21089250993355557,0.1922879669272003,0.10896545778322822,0.10497055882702683,0.055693346604917135,0.026555663110471316,-0.027771386782665688,0.0028772129527524204,0.05882597575453291,0.0859663801268455,0.10221978715353655,0.08347477668411225,0.05294782140123003,0.043682659908239614,0.020100925759708083,0.015600929168266867,0.021180695745490852,0.014576501188207998,-0.011618253748041707,0.024497879417463925,0.01255601447648979,0.017797221730566068,0.015489723399462684,0.03096303261548461,0.047704426206762074,0.060221613641516944,0.17191542615808364,0.20598528494617288,0.16385104034877793,0.1512543426923408,0.20105777405134237,0.28444490209977363,0.5177474414340518,-0.09581039573875051,0.07141742904608028,0.28744864540716286,0.21734408458799706,0.2308343409958409,0.19728898213993226,0.1937654166710012,0.13541567881491254,0.09989413262159764,0.08375429764256807,0.05146070108776644,0.03333584728209005,-0.015767603350063608,-0.015055691183136693,0.005324981540440452,0.06703850950182169,0.06046644319991839,0.08990115908116665,0.08512365376716842,0.04935829034034433,0.038345558162481974,0.03558228361524379,0.02704151230298733,0.0184634636693203,0.01364217236193618,-0.0040038460355111185,0.009356518723701367,0.004511689909147634,0.013216285386175433,-0.004087625003002934,0.003731798410235793,0.0052304109445875735,0.007421954082170563,0.0018253105430775694,0.0015459642045592696,0.01683669787180414,0.012241989664995907,0.027091813212682784,0.043119485195054645,0.06006355720899747,0.10898517250202149,0.16333109771474758,0.2250435147629383,0.17431481617352265,0.21206255182761474,0.20085476885720044,0.5800280292066036,0.1630057894404498,-0.11385434999578437,0.31460403142345394,0.22769170697319482,0.26783675911056726,0.20411938982813255,0.20174996475426807,0.1537489061034681,0.13057520498006667,0.08327325457182706,0.048875134932063594,0.013431232252056651,-0.016424808104779937,-0.014188871524977647,0.03127380060396848,0.07581413761617621,0.07623862958821291,0.10461730384923928,0.08791845033168912,0.09232014753352163,0.1086706031958081,0.13474882945482855,0.15024904784899165,0.15608754098872685,0.22655281371447858,0.2161837844686991,0.4926351253955674,-0.04837066129327415,0.02059313755648064,0.30710358585575936,0.23306196625635722,0.24187561037217303,0.19991324672878932,0.1830056276077439,0.13465385508760583,0.10669176425493791,0.06105100404001337,0.04044239491414017,-0.012450254387485234,-0.01369119321773966,0.002753109033255221,0.08167662780676398,0.08764293322094792,0.06173145789450716,0.047874013008499576,0.051043968602287694,0.018460952225253333,-0.002367063958548241,0.014018703106873075,0.016741952206303,0.02803679366423508,0.020720918568958517,0.05953579993465851,0.07613344912600495,0.15451685908734356,0.24158899309392082,0.16766703469630537,0.2134407701529807,0.18689367802667825,0.5453284869716652,0.16818175201504135,-0.12298526328322708,0.3115673329658522,0.2561536136273713,0.2558704113967019,0.1964537667430157,0.19836236041855354,0.1589261404896524,0.14642825178173396,0.06480815883476114,0.04829608912087354,0.036088006890327214,0.013504199788332604,-0.023068996907150058,0.015948936605715364,0.06800371159019356,0.07415470219484971,0.08909257354215844,0.04095464735758457,0.00880254369429104,0.026590508714466853,0.020890977134967133,0.03383201009140483,0.007768777140442664,0.008626024305988618,-0.001840908616643051,0.01570097737844087,0.02273404732940267,0.01636218166960077,0.017774581618890613,0.01522880098308014,0.014437547653544127,0.018085244305225335,0.06507049565209068,-0.003107018731004318,0.012107714731623156,0.022720865200274557,0.060775188226267235,0.03762859952094492,0.030678905073885803,0.09246844223729087,0.12806278863470621,0.17125463735719623,0.208454199380959,0.1780651220590821,0.22661491679881182,0.23160611597179306,0.5999405905337657,0.11615214024001168,-0.11694891828055985,0.27300044246770583,0.2317177789236477,0.23901197996630577,0.18899844347753272,0.1652539601159073,0.1126878030470114,0.07745851072338983,0.07189066296407845,0.036030056115546785,0.021068603503022296,0.019914880367251923,0.005218413836536924,0.08028962300404005,0.10212398713741797,0.10524421394363918,0.07465197458340608,0.06184342404124049,0.07017529534356833,0.08726879256173606,0.11356541942810307,0.13916082750137196,0.16954396475580066,0.24207447196522378,0.25914951749704046,0.6634124499118857,-0.004698797409839776,-0.05839107575649933,0.35018466029926393,0.28999858574908643,0.3061610133141984,0.2114801116358163,0.19133286657940002,0.1533899548838272,0.11114996267188351,0.05815602694504918,0.027090461757759313,-0.01635241651861186,-0.012583501197205627,0.026806052588003858,0.13516921474174592,0.14363784190563086,0.1051789813641181,0.05951498031864671,0.05026699832464667,0.05809591326157828,0.07897559797624745,0.10496933801382642,0.12052083367246086,0.15140629834897504,0.19813723632566269,0.213252641457671,0.3945626011069669,0.5622909425420557,-0.1787403594892942,0.17122106681320184,0.2974995798333438,0.2502008610269071,0.24843368881696565,0.2026860385134892,0.1816403943756145,0.12519129900322504,0.10476533272970981,0.06168179762709506,0.02167519782172912,0.01366843736164174,-0.01599163981206134,0.0325997808698368,0.03249760820028612,0.04785793565823642,0.050948869126199364,0.05218969632179214,0.022063277728599312,0.011762414979127517,0.025650662994889443,0.021514650118500712,0.028385288404431934,-0.0025342790210205143,0.019726176489834345,0.029370573404781847,0.007157575840092759,0.016181534784860962,0.03637514098842489,0.019589998069894168,0.016526752422724833,0.026112901784579288,-0.0009390745638050667,0.03208371516353499,0.044301489147907984,0.030409631940390775,0.04048277307937653,0.04011258388457169,0.08674426388001787,0.14672665321060155,0.1979037249470503,0.16432058964238008,0.19150717537314185,0.17594642623851833,0.37500642472903295,0.4871765769495639,-0.16356842595195273,0.14482312445585288,0.2565085341230209,0.2223747145449617,0.22807835833279852,0.1675561085620735,0.15606584811602475,0.15726891871610257,0.09637321497690907,0.07574795109692437,0.028237830646913962,0.0021863017288974995,-0.013704384013153815,-0.00048296223349551234,0.057625996968534404,0.07274453647974344,0.10739694594022195,0.09108513726012223,0.10383796920246183,0.10461025606508113,0.08924936628756551,0.1373302088951716,0.16206622089343217,0.12965193416780005,0.23420745503293186,0.2210497892138337,0.5254023979631288,0.027313486916801095,-0.025865615115430198,0.362881983665267,0.25267339688481716,0.27225522517894796,0.20679850819648293,0.17586657310395962,0.1393239568059119,0.08074617493988745,0.041155194565210704,0.029889139604562482,-0.0014217688026351952,-0.010248369325139454,0.0256774972807106,0.04131646594877916,0.09552268620797441,0.07290636130615666,0.054864718305337,0.0425105226971367,0.03310155995112651,0.051952899548882055,0.04622133542017349,0.09254299092461597,0.1027082751093081,0.22294357932088393,0.18948094920364192,0.41408936686655806,0.5403875864834482,-0.18896461620835195,0.14972462414262655,0.194535396921367,0.1966972278804522,0.18308670739882488,0.130349306034831,0.12829501929630122,0.08116845875464292,0.09485980183618914,0.10597410287421732,0.07521343792700651,0.03924100339896701,-0.020696555332938366,0.039966332289776536,0.08483616674892462,0.09649023149380119,0.1275988127596747,0.090499219629714,0.1155811437282384,0.1196958259282585,0.1460145346228168,0.13758847658287596,0.35549135902196766,0.41730200688982394,-0.13338488414275518,0.16486660854253876,0.1997112198665305,0.20564127361320902,0.12994832712013704,0.1361536424467438,0.13249819567547808,0.10305628348349552,0.055801379394098294,0.06173226357882698,-0.004974886805224269,-0.002109345590732294,0.013061128536697683,0.12527046928900745,0.22078553615207522,0.23894959579619315,0.25367743603949405,0.2479621128255223,0.2993252190798222,0.3899182703224909,0.6017168152917403,-0.14145312855861006,0.12506186449533568,0.35697618556437744,0.2770747015934607,0.2799901432905873,0.21000117906434423,0.19444499101551224,0.15514894320776196,0.09901735225013082,0.04952311450712465,0.034973455786126435,0.007346834559899065,0.01735400963031872,0.054965401983640014,0.08890195253297992,0.08992825115402128,0.034849248081060366,0.06151039337919958,0.027948760481818522,0.04501844481104891,-0.000368114645722231,0.04957785788082721,0.05235138737976685,-0.002414960363165668,0.055802431584086654,0.06530460510069716,0.039174239763526034,0.0422848957789524,0.07740355521750443,0.09305909804623648,0.08970871854835036,0.14902176378398183,0.2695433006910788,0.2563335833230526,0.2257527675751741,0.2078602119112974,0.35482823883760023,0.5509761539431859,-0.14456663002767028,0.12106514811010177,0.3614840900659158,0.26041796453996563,0.23075665529252065,0.22251473739915156,0.1893500015763036,0.1536005249975307,0.10731422637607275,0.08911774567849663,0.04358626756627767,0.002168498579768353,-0.009935414603054284,0.006378401084862266,0.005854589895904637,0.024109853838870165,0.051821906365026184,0.05525438361532193,0.034395082529697196,0.018085525231610066,0.03055185846509447,0.009123853395467667,0.021945752374995086,0.007216053718533842,0.0322302758232192,-0.0008606631018207943,0.0031197616802479226,0.01530719545826871,0.00697332901615551,0.017019753791308857,-0.002948973376749534,0.014955017413464194,-0.0009893280663139281,0.011093019571898658,0.0035640991959905097,0.010270080463471635,0.012477331539523257,0.02077985675940841,0.024337128457206533,0.03397362010328893,0.04995621564568532,0.09508557505528334,0.16078928825400382,0.1797765834464561,0.18578553635399547,0.19011555367586735,0.1831483497328328,0.3716534216262381,0.43168555060846253,-0.16861645190918667,0.1968429241200491,0.2592711621797382,0.23381975833489235,0.21931775200334144,0.1906422167587111,0.16289892453841226,0.12196729585248084,0.09919677376989787,0.06529847660492198,0.021271701996287612,0.006093407919260132,-0.017917949637487312,-0.010855177947181795,0.019112448496853354,0.0826092172999775,0.10000888048238521,0.07477474765189591,0.07936764889031209,0.07581508350439148,0.10729684059408269,0.10051037449793117,0.16256957039245176,0.14495820319893826,0.2389366651495501,0.18122115894220253,0.5060846489243833,0.2249902641228193,-0.12812564423103553,0.3823787495291915,0.25419436504759735,0.3011145820208729,0.21126951209660833,0.2010143163180152,0.15343711862912918,0.11828293556768732,0.07637673874680398,0.029073976765453997,0.003036815127904348,-0.024746943086526328,0.009198223887544483,0.04962176891031599,0.0796885106158544,0.06717179451148529,0.041753698661397144,0.03691479184758433,0.03009467407871598,0.01427635163671858,-0.00255475572923022,0.0047958242974035946,0.0005914051147789169,0.003178271053497368,0.0034894071990255017,0.0008476134255156859,0.016977369402842127,0.009997601595212185,0.030098072725270302,0.037513719630498744,0.05988487018616024,0.12019548706874021,0.21056485627164284,0.22380068803212363,0.14404012965572952,0.2070903432400397,0.19249965149798912,0.7002783978939002,0.12440504399291516,-0.1059063147851613,0.3106801594958233,0.2021221263764989,0.24355222772711238,0.17876191332078425,0.18481547884762145,0.11823209458620756,0.08216909809684338,0.06110514895773031,0.03692358808894359,0.01388206378923247,-0.0022741562491905274,-0.0026861248093272153,0.019140922035491913,0.039902973585970246,0.044254455934875335,0.03761084445571292,0.025701165599180884,0.02020817124659548,0.01144230812264906,0.01854223610053677,0.012495260240068619,0.010303476887276624,-0.006398714165358247,0.011650188789648498,0.014600642752752243,0.00712607679503168,-0.0034606332630619436,-0.00018561426278328067,0.003952167590403708,-0.005926512982646084,0.006341057912866952,0.005923670817817839,0.001562377191835453,0.016626426081403058,0.00925190691830178,0.029996289323563394,0.033455033978941125,0.04723082629022347,0.07750083648918228,0.11852136577682704,0.23745072156804917,0.176550982961856,0.1963113078709871,0.1717203325923034,0.4661112793518383,0.5476768596004817,-0.19526699845289247,0.18193356410541667,0.2590694073542505,0.25615756725531896,0.23038179191226074,0.21002089884733025,0.17713094408601285,0.15098060533496957,0.10079281859619248,0.06813891354439734,0.03031463397553865,0.014983092384871975,-0.004148485209859781,-0.023579617587463585,-0.0024796166927944212,0.033785211739410424,0.11922101500462587,0.1302170947570477,0.11215688404877941,0.1260383074383945,0.12852643887509616,0.13167109818364772,0.1355700645716691,0.19570604426525298,0.16919203322276835,0.345351309646735,0.37251669897171286,-0.15821856163527692,0.21973991414130284,0.24231760282414724,0.2415643973849302,0.20860341627393286,0.20133373404778804,0.16565735594777745,0.15077157685902493,0.1065903822957759,0.06583651632189788,0.021188151071521565,-0.02370881826741162,-0.016957083659653815,0.015490575430601762,0.07398875547405706,0.08604351666299925,0.08527686451725099,0.05329981808308455,0.042641567371125885,0.03005337499342748,0.009502883307911839,0.008491069922888025,-0.0007715490430946787,0.005989271881383167,-0.008530690267950048,0.0038293342289728196,0.006896390771067405,0.012792948272508833,0.024228925615232585,0.038526816558381916,0.0670100230951339,0.14771448358676265,0.2539661253911093,0.20175351075520737,0.21736891828326965,0.19360845066662846,0.4085323800391314,0.4192701215901277,-0.15951360759645883,0.2757805461740575,0.3513871084637989,0.32754745735171154,0.3514882348551523,0.20377127205708245
0.05638095172171606,0.08584501671440753,0.07918104600994098,0.048651653484717804,0.02592538812842714,0.02038384358464969,-0.007144285281465473,-0.018210336232674124,-0.019811782542786042,0.0384325409917715,0.06461174172078027,0.09142916411930746,0.09668235384946722,0.0845909551315934,0.05324037852022811,0.05053269726808041,0.03725955768262068,0.020749045694592412,0.016568356887217375,0.007278838728390774,0.01538323560035395,-0.005160237804758873,0.00469389621334392,-0.00018534340364037192,-0.0015749617150769126,0.0009945949934687455,-0.003064338200534843,0.009601088608983193,0.0011577194845564266,0.009027941910870778,0.011090281476681505,0.029501622768887837,0.03082861239598121,0.02923706796389893,0.04578404067176835,0.12132628832472353,0.1812746309861604,0.2077832725822082,0.2074076272404199,0.2434134653100526,0.23212707488218037,0.5418491333572575,0.29617235617035137,-0.18233057306552147,0.33338851538342373,0.2960730570175943,0.3024940152443954,0.2657192916468096,0.23212225742981413,0.19912754363713184,0.15234573229167375,0.11795591794018877,0.07302393564726599,0.0318867713307492,0.014724303913746068,-0.01505166628895178,-0.023120115572556246,0.014995191972631872,0.09910324192695187,0.13272926191507103,0.1229420014921086,0.1325210755647318,0.14868968926473963,0.16353639127740244,0.19391515822067099,0.22589029224898333,0.2690178060396151,0.2911293302794401,0.412673996390662,0.4084288203874157,-0.20097899891180365,0.25958149768128896,0.36279714132269847,0.31377933577436323,0.2932290722870782,0.23913701135489923,0.20519124874838554,0.160469295954119,0.11899701558769413,0.07292446925713833,0.0004303063194543915,-0.01434469563764665,-0.014372700927310592,0.05090025795450126,0.07251263322947707,0.07153527589466502,0.03547948975926305,0.03961429098648632,0.028012843110034418,0.018117605747233576,0.026159157288532214,0.01884873656210364,0.05214098546072947,0.08744797882616115,0.19261058627067257,0.26646155656115394,0.16223750666051448,0.20773605078526503,0.19632743105499284,0.5428964521931895,0.11415680104694088,-0.11341784248454392,0.31447348020807775,0.23343794393906397,0.2759438665193977,0.2050653291684058,0.211313977991047,0.15380827918048076,0.1086102153762245,0.07378036317486815,0.04514721563168809,0.005726486319226907,-0.005904824638504001,-0.017102919814712916,0.017183348614131778,0.0650574845475058,0.06503001428935472,0.08276612414929353,0.05189374949891608,0.03804111229669994,0.01919551333070893,0.019089761204413067,0.014947299944155392,0.01097887365875309,0.0016093074325117644,-0.00135401411351614,0.009117050357012418,-0.0037497535569774245,0.00694236114029312,-8.210674595044161e-05,0.004305971385393029,-0.0018721762025760366,0.0042536404128807855,0.005787647360224276,0.0030499578333586363,0.004423825177172286,0.0019871068294035473,0.02755631092951036,0.023340790772548158,0.04443296166018412,0.04933477989041884,0.11195166647946296,0.1612748348144242,0.21136005398921553,0.19786709715866888,0.2080839102239346,0.2053682639504485,0.4458495801346617,0.4177742850835726,-0.20647570939160012,0.2230188879013935,0.2752546630391643,0.2586049207892336,0.2268358302149041,0.18492722955954988,0.15790371992985627,0.10388471699187482,0.07518113009623603,0.03470035901292794,0.011861443248564462,0.006319609453083291,-0.008507378588913261,0.03835137102850116,0.06699843355769557,0.0946910034297078,0.07803799597291707,0.0545224114204296,0.05741578570385029,0.07069269903228623,0.10249256985236645,0.09856835540865014,0.17292337832840096,0.1662232928665824,0.2474415210412309,0.19797370946003218,0.551740962536356,0.06803583533821886,-0.09131606686798412,0.36835064187640293,0.2714335084689034,0.2911662619925513,0.2194530384233396,0.2271138410623641,0.15963965551320508,0.13184327076320052,0.08847561074659321,0.0006705094274508706,-0.008573547320935999,-0.019117991908168912,0.04128899245254289,0.11152245107181556,0.1232553095406067,0.10556001280322426,0.07583922695358572,0.09378096036026859,0.10337373627072874,0.11603132799363544,0.11982784895735442,0.14438289165243234,0.2095620507574917,0.2524726997883223,0.4321092405716815,0.6879214327171022,-0.1656643927916039,0.13683501415649493,0.31062724806368197,0.2660879100643352,0.2538470203024213,0.18302570804645296,0.18110668921672446,0.149181322065639,0.12124781423734816,0.08805447555068732,0.04794835579656834,0.012131898737422655,-0.018911466652688235,0.028653721404782402,0.057255371882155424,0.06340890528619912,0.028923949168820635,-0.012365347402261842,0.02181847952950705,0.06993076115313325,0.10690784190533474,0.09331798991226042,0.10435743369138697,0.10682078417687188,0.11462671800298017,0.16266934436625025,0.16025887034226707,0.3345128999003645,0.5574009926109795,-0.16167241412807792,0.11120192360908944,0.2746856760117454,0.24486799527564573,0.22873647719151455,0.18938783749068275,0.16525344434647096,0.1332692647401839,0.08785077216922614,0.05991856900775364,0.01931333968366901,-0.01031617565387099,-0.0350134855384935,0.06715956452932738,0.13712080922650363,0.1381319158482572,0.15844473170786239,0.15052949297786955,0.16316208165103446,0.17332148273350592,0.18700379121641506,0.20453282160523126,0.22005276413599542,0.3101430655304374,0.49735482467042597,-0.1407443007825088,0.13588375153699653,0.31325188544664107,0.24246813100716283,0.241432325511341,0.1823752721865521,0.1723516011657501,0.13281819220842447,0.09761510716202303,0.06011669391489992,0.02472757964995018,0.01304741645521039,-0.02258413532055322,0.09268975980249546,0.23464626935022884,0.2725990938228682,0.3107947429466044,0.2798662895127748,0.3508917697094163,0.3494330935095267,0.6658429663521167,0.005307045755607055,-0.038433833528082405,0.4232868631151809,0.3096662458631369,0.3339128068194754,0.2805947421711863,0.29196693345245045,0.22333907131298278,0.16420332373638624,0.05399774126483853,0.0031800165932134505,-0.005460954103653248,0.010194059231257924,0.07032063578598666,0.14220774859866625,0.18696046503300798,0.1756461967993447,0.21858004801791794,0.23708132496528228,0.28250316463085146,0.38057462593663494,0.6307014354468691,-0.10661242506891187,0.09490692678100829,0.39256725370259044,0.28471861399073867,0.29686632224201465,0.23327656781855258,0.2120184581069247,0.14588571232984895,0.09395403157160852,0.05925568536079737,0.013306189592815905,-0.0011332030606161943,-0.0102721241848524,0.03289715130726727,0.04492125318365691,0.04305422924804437,0.025549835432647123,0.017079071896123194,0.01245004295459427,0.00032574188447129123,0.022707095427019233,0.018960345585728032,0.051058685026698955,0.14384817633869415,0.22228703761331348,0.17839164587455814,0.12187220250951324,0.1908237322863666,0.20191562951259756,0.5181376153069154,0.029128711577624936,-0.05681514996203682,0.3078731680496689,0.23372209421652324,0.26452714094080865,0.20938971656895466,0.20676073757372615,0.1546562350024201,0.1295385783162273,0.08487638853671503,0.04829292374107713,0.016482847214657377,-0.0035263702360655742,-0.025244868462004418,0.03129751165169697,0.07221479758061175,0.09013001445649316,0.08467467809527846,0.06528531074436561,0.07182115386282617,0.033411354843556985,0.027320148233070402,0.04022890972886935,0.024175551269205803,0.0015363571257061412,0.004094653498343701,0.017750709970506748,-0.005422201597314248,0.017551803897791516,0.03860642772048884,0.015033231206767243,0.010169240548787786,-0.00487828593845327,0.02740480448279914,0.004742239662014649,0.007374806093599112,0.014704002469348644,0.01837831520732307,0.010466105780000507,0.038574640490431626,0.03696091463814513,0.06717504182298319,0.11239388137046992,0.1450812795071345,0.21796092752687812,0.12038738256567456,0.20819613396704342,0.1721011489483487,0.48819454053937617,0.25232750508129764,-0.16075419305920022,0.26797363176977995,0.20480065837466305,0.2580161797751497,0.20293088109205537,0.1977209283473775,0.1366058844179361,0.12169385274845881,0.06837870429404916,0.06335899819999251,0.036497732518794866,-0.0055211152920529505,0.006641125251597516,-0.0269996805524072,0.024636096666270067,0.060926849024349146,0.11864895038258094,0.08803081159937384,0.06818228077764973,0.10222916458883066,0.09376790367241848,0.11105532297525793,0.12845249017554486,0.176949595369366,0.1901366995823077,0.2393123316225305,0.32675577012615126,0.5242678578258744,-0.10188580020949875,0.10784774560809969,0.34168896896689444,0.25661783290118484,0.2816360887620553,0.2220005147636063,0.1803648128528115,0.16405110847345739,0.09858034345788302,0.0555954447918439,-0.0007539568532392254,-0.009886801934560024,-0.015416677883863828,0.018270362836015047,0.07737816013768467,0.06771578309679278,0.06578797059464304,0.07117952900246631,0.029921144872281823,0.03294516278113029,0.04962866766654894,0.0569660672685395,0.08789675193228125,0.15416735140023824,0.2462016328121548,0.19876648498543126,0.22018604393042046,0.17987776004513817,0.4657239044525289,0.2813780867727455,-0.16418355537974455,0.2663452399406042,0.2507187379673205,0.27947230790731653,0.2484616568460065,0.2290475546213084,0.196380049936823,0.1449414728361989,0.11833268647172354,0.05963800961017231,0.016808249900357047,-0.01276763704356536,-0.012442892313111301,-0.012754647176905056,0.07722205585798098,0.11444890743117694,0.08138741051890165,0.08147702897001638,0.0712640857794976,0.06120637529220292,0.013282943267447032,0.05365777792832081,0.020625330001526852,0.005434872648781385,0.02077609313792696,0.01300991203988768,0.03490550011757657,-0.0063594474668376135,0.012500279554157405,0.0034119616228516347,0.0420594560673901,-0.00469580709810756,0.019336575156029066,0.013429409532709515,0.00037611772721983993,0.03177540755786081,0.0161802308101502,0.044494018489936026,0.05429203209803902,0.06483665633977319,0.10515118377221377,0.1742616919386939,0.21253715158457342,0.25032169293553147,0.21934900303563162,0.2754864742637485,0.33774439601558864,0.6494734043256717,-0.04121649866083844,0.008512531340664254,0.39798797985429524,0.2876892114728708,0.30411097067139675,0.24978057641701032,0.22159968129758623,0.16311824642147393,0.1182583707628681,0.09188053267965886,0.06232757232553027,0.025752017486099364,-0.0025342648063604394,-0.007268202877920781,-0.00045285084532162273,0.01647499753561526,0.05444425188507697,0.046309118607293843,0.042963002250890295,0.028373883492338468,0.030894393753383664,0.020839346663125147,0.013364329983216723,-0.0018006822289980762,0.0005542724105640149,0.008472308961266621,-3.500849635029868e-05,0.0023950802739934178,0.0028374416875710626,0.0006860457448587474,-0.006767806904319704,0.008129378449656225,0.024279177501400073,0.009560611301929717,0.0368512184191561,0.02326279661058034,0.0871895072496714,0.1363412345820057,0.17901718951564877,0.16044536929807882,0.18314028139216498,0.17259063855064077,0.42524206013320404,0.670783550267129,-0.18944422597634974,0.11022743952572191,0.26561612845563876,0.25178459598260006,0.24333534327472184,0.21308386225436315,0.2176303489816419,0.1737042848838901,0.13983645460144956,0.09781840352339206,0.049684546525216235,0.02653518504437718,-0.015688886899058833,-0.016831792710015035,0.0008877192863155122,0.056310440321289006,0.06564601474512591,0.08178529877534221,0.07947257032077301,0.08442880271123118,0.03168751914557418,0.011692285940171732,0.015711266702398974,0.0006269709783808416,0.015414998998666047,0.001904606297938782,-0.0002698544746203185,0.007255984016926304,0.005853190314849869,0.0028403397582642364,0.010984609017379215,0.012178361812315242,-0.003737235571779881,0.029759357848242504,0.037254468589554814,0.07923424574928122,0.06394072131595864,0.11497106135959237,0.15151230467590462,0.15242692989133125,0.1800859256755845,0.13837884896497882,0.48987219533651855,0.36672388011147017,-0.18680062537613287,0.18826224571482356,0.2485886816885767,0.24707496037848845,0.2579788483165242,0.2698425347285733,0.23702700170630575,0.21353830768425724,0.22367215814991245,0.13569937195937004,0.1332081731005243,0.059446935637019596,0.00983060175685493,0.026373207540458448,0.1100306606430814,0.13539619360582913,0.14650900737727823,0.12845139912145578,0.13625503085268864,0.0965661098604809,0.06341077432249628,0.04220639424667354,0.056988615715127186,0.03663398297668578,0.02446005675058663,0.04299350865027993,-0.0013032467932493751,0.00915537971015978,-0.00509643190753653,0.0019084155507707058,0.01727504620171066,0.031634595815906004,0.011336416854594158,0.039869996901135574,0.04014860209657342,0.05574156551263842,0.13751138240901625,0.12903749090365102,0.18122361769815573,0.14203242273095482,0.19227041450005566,0.22117730806481237,0.5816104403544653,0.039950253879485385,-0.056015208195838044,0.304315687606689,0.23611809414474047,0.26137251351467783,0.23581877131449397,0.24846571341254348,0.21044836756334112,0.17042005139005423,0.17225050803888792,0.09829280373291135,0.060047100420797916,0.01728287425069492,-0.07500470158266606,0.015438783791555414,0.07416346465309415,0.11941881677794139,0.12118126225082317,0.13536486678065734,0.11300209223919098,0.09284340044622331,0.08268521066970798,0.05290393647246676,0.042318539668183205,0.0336811534766445,0.02180074553182113,-0.004183522598023098,0.017962886886060587,0.010821387222311789,0.022724736621998785,-0.001776533598469601,0.024212200389336993,0.008350639987758656,0.023322196537923976,0.0506015534893358,0.050403062158371356,0.10903269932013789,0.15088748440515645,0.18516729791368547,0.13871230747964128,0.18844509537451623,0.17347289205657318,0.49828388508937926,0.29674690798768627,-0.17197323146955992,0.24982959426485113,0.224195363172354,0.2662618221281391,0.24473686974051098,0.22871887302510183,0.18840234124201932,0.18143597873577688,0.15020285643024817,0.09756817544228968,0.05945969291003013,-0.0028557171869060005,-0.012187964498683283,-0.039360072810934635,0.034169134581712196,0.09695636282387143,0.09761422106209215,0.10877130118402624,0.08911864011322586,0.08771362849006617,0.051784697953304926,0.05323263642452355,0.04387384393013131,0.02000741140126597,0.013108158915982167,0.026620889511227867,-0.002826290661581412,-0.002879799873346348,0.0062833775393078386,0.019224258263197312,0.010197021359871494,0.014163222379191476,0.03115167471188394,0.03878087025904347,0.06260422952065357,0.11899084326189908,0.1445579012925154,0.17029455213568714,0.1537070472976334,0.1892194466728035,0.2693881969264851,0.5152731487471557,-0.08210185579833322,0.03523979572486625,0.2694956111760261,0.21477978491041774,0.24137331552066918,0.20655306548052962,0.20176960287820292,0.17891063309607325,0.15686145948419467,0.08908808693231549,0.059652659842777074,0.0186651065496776,-0.026181224147588247,-0.025395418178674484,0.0013655244257514169,0.10290059360451508,0.1450650600730021,0.15004118405013836,0.14263714266962096,0.13323444567118353,0.1385522457067709,0.15918521051669804,0.164714682075826,0.1919121395196426,0.19911444768963987,0.3799625816861412,0.4063750467906662,-0.1637597778623634,0.1922656840035826,0.26951634626401394,0.250579304518342,0.236189310225125,0.19579578999229394,0.18103197521602943,0.14435715624016332,0.10356867705221799,0.06388521004231767,0.012174637810526396,-0.03680883437957599,-0.00694675675966281,0.09062669378035966,0.12023796756287153,0.1251452662859053,0.11302359486276665,0.09234469913519673,0.07378907127656745,0.07524375040234782,0.07578982943428982,0.08145521731670391,0.09817083528266314,0.12368771607879075,0.2183880560907829,0.2617888509419169,0.5630455577487021,-0.015834689071733663,-0.042731053081456555,0.25108405048220905,0.1769727181253463,0.19351790560100676,0.12678674095595097,0.11982510910963723,0.08222649999198534,0.10830126493153956,0.0725665253904379,0.045588717278255565,0.013742683335743019,-0.01860211608700487,0.02452134922667084,0.06596010431446235,0.10964468710509032,0.14880615615998757,0.15156727115896362,0.23425976331434567,0.2711426334332496,0.3399933678795229,0.3972157351744227,0.5935997852464334,0.08396142807878419,-0.038211318142228785,-0.09019565054741559,0.23433448958443528,0.38556920714857656,0.31677187281501534,0.3442001047980224,0.250569477361292,0.21530549009546515,0.1479463780297542,0.10291823240181718,0.0634423143838965,0.036428453134157185,0.062084847040609466,0.06263909396239206,0.06588660614508794,0.04181398322369169,0.020825428164196923,-0.009405648143617796,-0.007282046238136246,0.027865688694072
0.3399356371359741,0.6037145138996827,-0.08418860608500263,0.18764497305247121,0.22469446629178177,0.1766398511651243,0.15789432303578962,0.17031023151339983,0.14926469094435307,0.09614354806810375,0.05937423154582073,0.03580622724864377,-0.002626184175160311,-0.02623909697640871,-0.01596458508081469,0.06471063930182741,0.10158101931145727,0.164457808953829,0.20696146201546572,0.2145295724934605,0.2356538454516992,0.24996171254878666,0.31208899663978923,0.3767732500603234,0.5039395675567674,-0.14085281071753572,0.11979021793711626,0.30268030088282055,0.2972042939753983,0.29915208220553513,0.25388812958906265,0.20661990231955996,0.1492339038427159,0.12162374800430165,0.0827114164810425,0.032999020196736686,-0.02642954436556277,-0.02651627668973693,0.03384231392386991,0.12566866710676794,0.1258407338486899,0.10946603635065263,0.09604727228619823,0.07967264363930072,0.10044950838477365,0.10240089987955063,0.10347524651459913,0.08220043822965376,0.11029060906430982,0.1273540927039289,0.23740829195008484,0.2541702127604236,0.5803243565644103,0.04403024063332156,-0.06089956139551354,0.3420977832411833,0.23561202436736964,0.24303232281025827,0.1819076896909538,0.14011053871341364,0.12230195517968998,0.10814091643863301,0.06952885462541872,0.03098061024676353,-0.0042173013167202305,-0.009571749607522599,0.01718059048553455,0.0451090231036117,0.08148437667359325,0.08491755645854845,0.09828680243881378,0.15984506426817813,0.14526720709031618,0.1762549796828425,0.18910605539968336,0.3982070896652264,0.251309524103831,-0.11369583272115687,0.2170721859484066,0.17272617468663143,0.2071032776324251,0.19027947363080977,0.18887273368221252,0.15870624369794079,0.1332195038132516,0.07659499344199716,0.0347530149355231,0.01535861798267457,-0.006356903489601094,0.06395141653059946,0.1182090445235643,0.2669349595741608,0.2745418921394387,0.6070508277961466,0.04934693610718138,0.005473375421239297,0.2916012765799377,0.18786453477993711,0.2095233953582553,0.1516822706393369,0.14416039577280665,0.11031307114174703,0.09117828237873402,0.04377759498767014,0.004355205472515382,-0.013144063316840931,0.0011354172034530679,0.04900073942410153,0.04902784562538048,0.0349689761130271,0.04059944773804628,0.03821663282260746,0.06624940699553562,0.08108332982241633,0.09845272461018108,0.10467591905902356,0.14017364451548242,0.16534366839090442,0.20113890201055887,0.23266560654567547,0.34323396027119535,0.5725103297515031,-0.12632803242172821,0.10954239017307933,0.3336859557770322,0.2544440939439521,0.24464942091410014,0.1926561756207677,0.15935961507178847,0.10433191189601965,0.07397005375240918,0.04428234363813154,0.047810991173575,0.03979980311263172,0.1028607869115946,0.1146662436078809,0.17316284629949286,0.17945845248046152,0.19507969930190186,0.1842023226510529,0.2363819947510685,0.20435115243597368,0.44821906049031307,0.3208061646225287,-0.1937752907775276,0.31199365017388836,0.2949768314330029,0.28274477965421235,0.23375850647929294,0.20283002911074186,0.17446452754231245,0.11991073155583017,0.0714382961704238,0.027449223902087844,0.02374726850115797,0.07714301485075689,0.1612761215015441,0.24501373065718687,0.22016546434405415,0.2760954985839207,0.2418758211649455,0.6402695016830767,0.1845391882386935,-0.13995162664972505,0.2713238543466832,0.22294735244036315,0.2528692853688204,0.18204141816280173,0.19122310221526018,0.12779997227406178,0.09860791271298756,0.03652705623933644,0.019306536263047108,-0.00047664113145251536,0.009228151992723052,0.09504443722880083,0.1372753558941752,0.15477954334937635,0.1568907206653795,0.20539657356268448,0.2061179927876201,0.2765772132338867,0.24118911418332928,0.5049282088776413,0.22444195059220906,-0.19585175801063137,0.31131030840452534,0.2757948911432574,0.28212676178814894,0.2311887725903565,0.2232075168091676,0.17656982578784725,0.11675897037347602,0.08588734524573109,0.048524065029112905,0.035565256667437956,0.020772520360999715,0.08322811478889136,0.16316507750946385,0.20686500531617594,0.2075775095962876,0.26701286298122917,0.27454140148411266,0.5907291787710018,0.2683999950693508,-0.18412128388174215,0.2910844927880615,0.2536731716843645,0.24885296630945547,0.23457133041024011,0.19199554267512003,0.15239867625166656,0.09147108043613819,0.0439724745535487,-0.0011800975906446371,-0.006613813562686713,-0.003999615379390612,0.022501706919244472,0.056940172112454134,0.06272170465920135,0.06234616299025195,0.06037113320685617,0.07693136870515381,0.08347726368289024,0.07411705527589489,0.09055244594411199,0.08751827059478474,0.13245272823947718,0.13197037798156908,0.233385243981472,0.2298374742629504,0.5740720460610849,0.19199182600087308,-0.14271499371009236,0.31137850067646683,0.23690645082684295,0.2568684131222531,0.17933993022155872,0.1426086077423007,0.04763900095040435,0.03934461232616213,0.03429404221476162,0.05142461379788744,0.05615504241169302,0.060323892987368996,0.08821884687784218,0.1147175767286322,0.13472416389778896,0.10171129537648274,0.11455471743461237,0.10691523321323297,0.12199095573895102,0.09489422156898711,0.11165467598628868,0.28113504138116335,0.48811819904988923,-0.10621028790931275,0.12911289406225096,0.3063969279045972,0.24992416142797888,0.2743706065047957,0.2297558341305241,0.21586399195021688,0.1657329967730882,0.10712971171010799,0.0765213358701138,0.07072812577749651,0.07382859849962026,0.15877906959925875,0.18461147042433362,0.4429541219834502,0.3451287613782089,-0.1612195641360152,0.2712728486080441,0.24813133819607197,0.24787248447822743,0.19703477742204922,0.17462269779629844,0.1375217929853624,0.10353743335727278,0.06550924046284201,0.03956109642491268,0.02720093996720796,0.04748998296733537,0.049477297392500584,0.04239250758441615,0.007064608764144875,0.012286650598560538,-0.002099789701655387,-0.006101171190644073,0.002333048865932374,0.004094289767242594,0.009935393817514274,0.0017473572443126935,0.006810422895272796,-0.00029713740818074094,0.012969567571448497,0.005215365329270672,0.0013800142120893764,0.004829184938977425,0.0038660526489990303,0.009192005528913569,0.0013343562511977454,0.012361704688632569,-0.002164127948166949,0.008400937958966577,0.017257968696847367,0.026782127126882608,0.030363972173702704,0.05348406881209363,0.07018297419039254,0.11927350082941206,0.14655039749122425,0.16828095253014255,0.15941422505460948,0.20943850558195867,0.2068659800524207,0.5481613409197535,0.17618829378842313,-0.14202924977343176,0.2681516174904878,0.21527379703603203,0.2295788720138841,0.1728838748048237,0.15016147877785432,0.10197982988610928,0.08118894866730403,0.052718593568046125,0.03636268168435457,0.010789519769314441,0.020698113928648617,0.016133225060719028,0.02088107570960906,0.05917984543993176,0.07344540387323299,0.06234852863461244,0.027352055997612215,0.01595631233026432,-0.0044299682455744135,0.005565197925855676,0.006616590273812256,0.000745321487099263,-0.0015124430490782274,0.0035116786056853216,0.010268665029980509,-0.005437414307130349,0.01129715160023081,0.009421186094889903,0.0015588999957411426,-0.00021303688481106117,0.012070339343984363,0.0021551823000998437,-0.0011962414204866997,0.011138041786546165,0.006044301047056735,0.013348975324217246,0.0075776154707427965,0.038736989384813354,0.03522907211210213,0.08811821741668868,0.13321516357763044,0.15877084020033194,0.13358936085328826,0.1714693438847798,0.18705046674835185,0.5543431635007714,0.2530704325779676,-0.17340429762081921,0.25478829422505933,0.283667451789745,0.2892089570810507,0.30080518105425547,0.29564020322199963,0.2823386690713608,0.2687820247789216,0.26805973365741026,0.24090240449742711,0.15539262241414295,0.016575668085600462,0.00255456828552225,0.24867375863092078,0.2605268936223983,0.2952695975712847,0.2714123049521836,0.2295356777275871,0.21899939017551484,0.2217086310321014,0.22718402425210066,0.21542891510256687,0.262844027201323,0.23247033594417738,0.40473034319102774,0.42672355682700225,-0.19675358767423617,0.15776572765262312,0.3392418765216338,0.30558485362251403,0.25021169237373625,0.23153754201290436,0.17003862617528293,0.1326372033321615,0.07826760281489699,0.042260857737229304,-0.0019757994258273646,-0.015212929912332699,0.0007215746519723624,0.04280083297455323,0.07272835656851603,0.06147630573526376,0.04985299259558734,0.02127621192540295,0.022837233574921366,0.01184689425905911,0.008937555867224504,0.0004109777312375112,0.0032810946679446657,0.007588041610036508,-0.0013951192720251004,0.013342990278823328,0.0010266202986425742,0.010627986830428378,0.0004978960629804529,0.008467195110660946,0.005532628843059705,0.006134302085058853,0.014166116945029764,0.01159559716657419,0.013838406791641432,-0.0013979126677445897,0.013258601430838138,0.003241344780059374,0.00923415963170476,0.006681018562323738,0.008818852627940927,0.006391734836309816,0.006420586840197569,0.012908546926779155,-0.008227785301983176,0.008646677432208127,0.00032168731213827267,0.020713127724870023,0.017247024172039913,0.022474946173187873,0.03798725228348529,0.041693361287173596,0.09922189943847977,0.1322626256819257,0.1854871959184683,0.15481537199622583,0.17354283172350793,0.14366563082899336,0.4436145013140241,0.3235418794075433,-0.17086996762466644,0.2118731232662708,0.19387199903718436,0.21752380265340449,0.17714602862956774,0.17508824452257046,0.1370405887833679,0.11470605614108641,0.08710275827084096,0.051197364470046386,0.01956379322527554,-0.002029010127385678,-0.008665367283704262,-0.025461533736739296,0.024510819615547824,0.12712100482985492,0.18362055833255042,0.1513537242686415,0.1465362392115812,0.15460146587949683,0.16513603753893277,0.2074895828738014,0.21720025563262021,0.294184894979781,0.2494712363838787,0.4492566514647991,0.21053933248966616,-0.1457171214977219,-0.020816954678641083,0.27072768932887714,0.3726457679674505,0.2910313799973616,0.2815846696399274,0.21258295436549585,0.17686401441902114,0.1035840595864314,0.048453767862776526,0.0037390516585159256,-0.002673668277920644,0.03296267024806754,0.06535426725507879,0.08190246625941333,0.053054922985634606,0.017145769401642853,0.006044598649966182,0.014673449763004094,0.02490961136805082,0.05987993804450715,0.13195994979528683,0.22633325425234493,0.19256327667020973,0.18524743210824465,0.18727243091045126,0.40697379762074776,0.4498616215215974,-0.18434450430399194,0.22284261007364417,0.30430277650684345,0.29160127514935846,0.27854706451959865,0.2362168544126454,0.2210702016631225,0.17791832516442202,0.14352517703432688,0.08163504575769598,0.03399987129649827,-0.013700634849191942,-0.02881704025059587,0.01758309412268863,0.06619912624530008,0.09877724875305992,0.08558395278824259,0.08999293797461795,0.06479559990689246,0.047670417377403324,0.03786410310692073,0.024464687075412408,0.018288513199612087,0.00828209384503954,0.01636192132715081,-0.0030477915345398553,0.013023081531997776,-0.004054842693176963,2.8610879724164686e-05,0.012149834645807068,-0.004559457602086193,0.0005207233783115258,0.013442876278847625,0.018455565180363308,-0.008864221100100336,0.03013580220194283,0.03406579146820495,0.04626099206744686,0.06287065483248372,0.09645175115827039,0.1581493447154724,0.20431540061063397,0.24964087544004296,0.20283253932038034,0.2657848097246608,0.33860997139409876,0.8931476135539813,-0.007772811123374728,-0.020229967648641302,0.38750112586604213,0.2839896929594401,0.31978513163574024,0.25126535275480355,0.25333765182735796,0.18815014530336263,0.14688674446114489,0.10248491192492296,0.05565739499154598,0.03440725060244701,-0.009956741848939469,-0.021717564132677426,-0.00032921327142985095,0.09521210326913465,0.1628065722755106,0.12788543906979657,0.12607553874708957,0.09441619759376704,0.1328808019477465,0.13481431118010986,0.17820914914808797,0.16516763993777225,0.2513234997805955,0.22364244501291625,0.48928149656153797,0.2901448761129172,-0.23354584590860852,0.20569734110325516,0.2844100114929978,0.2880694458715229,0.24098732340947,0.22610564584126566,0.1789855322623287,0.13139083451269398,0.09504819831087886,0.031262352788412676,0.005397299041725744,-0.020057350067899025,0.025892131434056317,0.06397381148429467,0.06368195948243716,0.04627258723388512,0.0172345569648568,0.01652857476140064,0.001508370943564327,0.025932933926387458,0.013584827354368926,0.02888987034112209,0.04002407793150352,0.11358722280034993,0.21616401435864788,0.19296529100869533,0.17763128609375814,0.17216723404572978,0.3412658710196012,0.5266083891323443,-0.12339158694919353,0.08259627678186472,0.2959287954107458,0.2577334330845499,0.2664120757657651,0.23012747089686358,0.21404013282000406,0.18470047173488038,0.13261868096896431,0.0878920752743851,0.03305815889766298,-0.008127025644561183,-0.029736996173912292,-0.003963719717217611,0.06693807997218297,0.09479861018464451,0.11263923872684536,0.07944513683391544,0.08711995153001648,0.05946736846881038,0.046490786219153146,0.03440361138099527,0.01983425827357108,0.017434584443904805,0.003352557312254881,0.003799168566781102,-0.0036113461108471076,0.003672558107319862,-0.0009035883653676457,0.005211520439277751,0.004695936807746148,-0.007852933158753088,0.005872316990906838,0.0034206669048312084,0.0025968464855324067,-2.0397530352191862e-05,0.018680210310458183,0.010947957715147767,0.024451073018472352,0.03664327787131598,0.05434461980380272,0.12102062846477732,0.14704858322843956,0.19982001914821454,0.1567299838260153,0.21364587340362,0.1960483781347678,0.558294649923517,0.11089702822575796,-0.07899706671102895,0.32930462487024464,0.27509366831058313,0.33353938733666794,0.2899813406071295,0.31019649880113226,0.30652018624676586,0.28999381278678754,0.2890239221779999,0.18285746183803703,0.03296210149548847,0.07234210329031081,0.06684228877986258,0.055443348501254194,0.20471842415831537,0.3287815405858911,0.3308045889921766,0.27735036227186677,0.23332985392214858,0.22687318517909943,0.20437327062513186,0.23176665753006473,0.2164563363443836,0.27600869542895823,0.2411473868978479,0.4523608571088784,0.2577323287656078,-0.20409820840633167,0.18779237051489842,0.30150104906135433,0.2919589271202917,0.25760073424109114,0.23965497343395503,0.19742858048545783,0.16252968229309986,0.1046507354513595,0.0557497301547318,0.005800843576817236,-0.024842170109069014,0.015284747477307471,0.054078064534771784,0.07712029263029788,0.04506766721444739,0.03326689490103385,0.014069807262737048,0.003251318112272021,0.009121851841450429,0.002038103656837596,0.020742322199688076,0.015031621808522466,0.06107266645057541,0.13582972396107879,0.22902258684608004,0.1541829074420809,0.16953243085401593,0.1614208494318582,0.46760065267366585,0.2564678187056509,-0.15848654131844972,0.2947549864677435,0.29239407129187955,0.32790470371653363,0.31789716466321755,0.3337238447977636,0.3385194407242185,0.3071015009711441,0.3237184089989966,0.11505520084161537,0.010017172967232577,0.07209543752563238,0.037552400957102744,0.1923747747609209,0.23632866659366814,0.24616897899636214,0.20950458534171215,0.186343651205872,0.13601097562293957,0.1108995714593187,0.06948448561710309,0.05909075605366046,0.03399260973958539,0.02320493754878301,0.011084667970922196,0.0048871085697286655,0.003974731932203821,-0.0021932705721182185,0.00034929847846626975,-0.009216388473424942,0.004332981103843697,-0.004200790786945491,0.0018670352247739518,-0.0003806244862038182,0.003349166021892729,0.01751037223321464,0.017986167594057047,0.038031599216743775,0.048726860995895044,0.09264464822232232,0.1485421756476646,0.20070858981976292,0.21336358047231221,0.19150432343226517,0.23130026201408738,0.30515108412467,0.6064671721034046,-0.07789048287365519,0.054249525096276244,0.32388627795864827,0.2583499347555573,0.2792073051829057,0.23168242995226246,0.2275584651001579,0.18898433829882405,0.17590137362034977,0.12729912734695453,0.0908943106241738,0.060281067011450994,-0.023030191450920237,-0.05570537586466239,0.042738287131246444,0.13670620498567526,0.19365924085406203,0.17184805690659372,0.1496478327927479,0.14223261614895946,0.1493592414615209,0.1430166294102838,0.18837414837264452,0.1851690355584518,0.2625756467526048,0.21992620595404525,0.45417506915287176,0.29840682173665284,-0.19751147819554601,0.240626579632843,0.38895490487266676,0.36302614483601586,0.3845228621983425,0.21446398477263778
