0.07234327977271857,0.005021245980082066,0.21429020430251214,0.24194075256271141,0.2832354964620187,0.2835134013004987,0.2547302139201623,0.23428711289107998,0.22454511722063683,0.23244419242763792,0.2420658259021292,0.2630772495065625,0.41227329206885555,-0.07407773742008,-0.0449855150907556,0.2978239928250047,0.3343833439885101,0.32997409766837577,0.3289760812433494,0.32847895158534157,0.31010685166582297,0.29887741414138613,0.1210746587385348,-0.02963319435564193,0.13353979656368442,0.3386823642298531,0.3598945107938674,0.45815485618605156,0.5671088384224527,-0.05791799575495092,0.005737655271600612,0.24876318149909843,0.2097786084934416,0.19666140859110973,0.15474745679444674,0.12583235063572346,0.0842318285152591,0.06273846120921037,0.0239502559729368,0.021280437573898945,0.022042004035350893,0.0549031457711972,0.060457267384594976,0.02648480934058834,0.043540308141975806,0.03413347615804463,0.043764497156935374,0.07852835606356329,0.07269626588872519,0.12232810293391999,0.08574135415040725,0.10912434224823406,0.16499962100652416,0.2050664445034484,0.13817349490722203,-0.003235093623213362,0.24971477302108983,0.16242254757655863,0.14687874869092146,0.1975911909192558,0.17980198832868588,0.20176570596032659,0.2734719944660844,0.2715614003046068,0.1836715641375231,0.20009882765092343,0.3065010599345828,0.5767029697309785,0.01498964621657973,-0.07718835611818818,0.19395263914674557,0.21235644662284098,0.18069713792428224,0.17905494629870974,0.1563281737665877,0.12390439535764602,0.08838176727722515,0.04605260565501778,0.04014575574645641,0.0022951591190725953,0.0034802901681081863,-0.004344503679625083,0.005066776801695778,0.03716204946849113,0.06001616669764853,0.06960995436751294,0.054281452247259956,0.038872961313037184,0.029667701559107612,0.02415160320702483,0.02745521962769537,0.0012321090849288082,0.009289177643474639,0.0037693718412945836,0.010310769218186418,0.008751884321804888,-0.007788020289286527,0.011291293184025643,0.0036461662023985937,0.007345761551811889,-0.0019903746707241724,0.007712576406765547,0.022112235667607186,0.021973338223003985,0.02922861458785804,0.0552770903375267,0.09304557321003346,0.1416295888414092,0.1418364857156423,0.10778253902671105,0.1505176035090534,0.18336249342246574,0.6611622504395045,0.0454206336983418,-0.06285490435168006,0.22521171814348134,0.1612100355356573,0.1938205559376264,0.16839650481884874,0.18313502518409885,0.13468742545629406,0.12995463528067952,0.06724869262735714,0.05310510083439354,0.023344017625694335,0.013514736456504615,-0.016483483035194174,-0.03202801313962517,0.044600556644854544,0.06071525061787624,0.11050269141374994,0.08629196052847858,0.07584961273770402,0.0849709125047583,0.04792590156856168,0.04161233555172633,0.02299617908547798,0.04773259711524115,0.012950715781461815,-0.00205263218571804,0.01673726938029226,-0.011285356139576727,0.015142173449464067,0.021626274216318513,0.03923401517421852,0.025543226389207734,0.07567096202421703,0.12100581772036444,0.15136964925936686,0.11097837277260406,0.13832905549432728,0.13765486029897753,0.5707401971777869,0.26088944909218076,-0.15488124148411636,0.18864006314793935,0.20539367647746953,0.20417341050945803,0.17722264143793606,0.1762273978230491,0.1567689506763456,0.14645397463838233,0.09553449553660662,0.07267819209861794,0.02874438816040663,-0.006794526793215462,-0.029834515174041697,-0.006747131895786819,0.05146835423032736,0.09031321632582454,0.11307518072788947,0.09143967283390667,0.0763845274366986,0.056735873589348965,0.042386177941517195,0.03166214999027913,0.012320204059529967,0.009849498983063398,0.0001839240486646318,0.0027016706009526637,-0.007555405186844744,-0.0035677084103702926,0.01064341196862812,0.002894699700683647,0.011751023677257163,0.019169929897848575,0.03628738038947189,0.1783629438500608,0.3065105803431084,0.2948678874929578,0.12775056630612697,0.22613908025492058,0.3746782112272803,0.35899105981774354,-0.19479359254481765,0.15657245454528407,0.2867402336801508,0.29400693836032604,0.2947993607827009,0.2253622229509957,0.1965863642226573,0.14755368841176292,0.11802072437400096,0.08442664379578224,0.06155797888536509,0.04065120110646691,0.02544215312934123,0.014083597398236457,0.0063039935454485396,0.0013962394332685567,-0.0012955040343051827,-0.00242364037185779,-0.0025730419263946566,-0.0021966573607335796,-0.0016022215517536268,-0.0009706479766730985,-0.0003894759724586736,0.00011114791814010646,0.0005249249910126709,0.0008488110820203043,0.001078136115702606,0.0012055548981596844,0.001220324411220098,0.0011078258577556775,0.0008496015717709722,0.00042367264699888816,-0.00019445323154982408,-0.0010296317297803616,-0.0020895705949547697,-0.003319901102900529,-0.004542112847232381,-0.005383461661670265,-0.005208295427101595,-0.003076285373238728,0.002238090282700983,0.012118211121046425,0.027962970595841918,0.05113044653163597,0.08288765477387783,0.12574266062962058,0.1744576179961356,0.24227762436165984,0.30843879351416037,0.4046246593193008,0.4762441525292913,0.6055188186691406,0.648416709031961,0.8457434143435347,0.4382686273315187,-0.42687451932011256,0.4280542830571806,1.0758445994721018,0.3985753852491975,0.6218321714778605,0.9137231939307087,0.792240949655893,0.844287632987508,0.8437884399921146,0.8722458735326384,0.9749659554795855,0.8053212429475357,-0.11886256291430425,-0.06666584853842916,-0.03450167125025362,0.011853976033915291,0.029400273385588933,0.05032062582054634,0.056999280124193176,0.062277720167140144,0.06160101477423929,0.05864594004190733,0.05410234785395453,0.04799842077715258,0.041378222373115295,0.03471106196505144,0.02833613207834032,0.02248394007334815,0.01729617693495915,0.012843931719301137,0.009143870454638393,0.006172135872590113,0.003875935318605523,0.0021828358561979937,0.0010080071729889825,0.00025951432213773356,-0.00015791503758099068,-0.0003396454403160207,-0.0003725334934563916,-0.00032509480040058435,-0.00024485677372921286,-0.00016059536123921714,-8.678455627665559e-05,-2.8386915357521106e-05,1.4849201518841873e-05,4.504075931649584e-05,6.446891749101827e-05,7.528170677439545e-05,7.942701085891848e-05,7.861710170964759e-05,7.431078382611954e-05,6.771744345143825e-05,5.981013549643678e-05,5.1347779054180136e-05,4.290067235200741e-05,3.487781046590138e-05,2.7553866683826596e-05,2.1094165263865643e-05,1.5577484286995302e-05,1.1016203960526874e-05,7.3735373716516e-06,4.577812871452894e-06,2.533879171443448e-06,1.1319129788912766e-06,2.5383035575859954e-07,-2.2224268901219537e-07,-4.176842082769179e-07,-4.423151977625453e-07,-3.832704651127903e-07,-3.026748372205069e-07,-2.403902229529696e-07,-2.184063422841159e-07,-2.442467333289657e-07,-3.1222564523758884e-07,-4.019468900287993e-07,-4.7455059449093877e-07,-4.677692429783785e-07,-2.9239347911046655e-07,1.664622123228583e-07,1.0386080621544856e-06,2.4557408996880684e-06,4.546034799362831e-06,7.429657419905182e-06,1.1212166656859734e-05,1.5975450100017796e-05,2.1765859901099784e-05,2.8579306033890082e-05,3.6343158133967916e-05,4.489499292360107e-05,5.395841230694065e-05,6.311643940713412e-05,7.178275587433025e-05,7.91719936884256e-05,8.427210688898771e-05,8.581909793680397e-05,2.674016739139241e-06,0.00025404684495241935,-0.0002952960511145646,0.0006229156814943984,-0.000996231849180653,0.0014477429984554244,-0.002546348105811785,0.0036434251805701565,-0.007725690817348811,0.03208592102443395,0.015561213204627288,-0.0062026621816362254,0.003105856579018265,-0.002214467278791944,0.0012744939528784413,-0.0008496650880383439,0.0005524556252651892,-0.0002145711625622668,0.00024941001643293513,7.26567648773527e-05,0.00015701454164980316,0.0001853323142818773,0.0002174904032869801,0.00025469095099754706,0.0002974487151034964,0.000345477332923486,0.0003975565181794175,0.000448404261708247,0.0005068169179481552,0.0005322208586198706,0.0006037478938134127,0.000536972404087402,0.0006403372296267441,0.00034221069360493983,0.000617360519511302,-0.00028295362586018254,0.003725698535521948,-0.0005654168794054841,0.010781933900454286,0.005322930244370622,0.01843047016652412,0.00422528509810982,0.03724589586801086,0.06052433277529557,0.047157241761888784,0.0007827394809438102,0.043643160145736964,0.01708999461994944,0.32330639602020994,0.14993534650842466,-0.0575361688991319,0.059442148330493064,-0.007854856207220954,0.06186731028243161,0.09833154854396788,0.09962811261456035,0.08347235622093227,0.0619444496109755,0.04803666912795906,0.04745549624411341,0.05983621974961991,0.012588566931306899,0.037900201570803066,-0.00022937459828426443,0.10074545983151154,0.06226599421154792,0.1333584980959479,0.03964605597920685,0.15795044404384392,0.16493858914899406,0.07071942972248545,0.19932808137842328,0.08330661816310087,0.10459523654989995,0.2519096215360654,0.11351153190234367,0.15276452778922978,0.13887333176853486,0.1707076382199432,0.10095764171654821,0.07604654963025746,0.13394715505435936,0.25485102582849,0.22324892378096017,0.25414624803430624,0.20052032720965418,0.2149510147668771,0.1985516697013569,0.41629491191605716,0.43414251135167,-0.1313948618954336,0.09311185864442023,0.26010268893750954,0.2317466018704351,0.24938454214579334,0.2634028166978767,0.25044826063413533,0.2588912129856563,0.24747102425645756,0.2556848387422986,0.2170472466830376,0.030917390440227413,0.09133217210961869,-0.006556119420243909,0.14568930748161343,0.2624798879649136,0.21348149456211216,0.22140899312294232,0.17862346718368446,0.14374442654208608,0.10556997930589147,0.08230478106477124,0.06263689485783876,0.021245041253475833,0.0299094018471578,0.003289569717563584,0.005558037193252184,0.01219293766564857,0.0023656226892151536,0.0003692086820724656,0.008962299916341692,0.039809489177759484,0.0699430531264704,0.11075532384938387,0.11958286294930849,0.11183408074829704,0.16042806294091808,0.11030325525945282,0.4179375226925656,0.3891991110389469,-0.15897227787162668,0.19232613952079064,0.20054155604342097,0.200654653379558,0.18515958880385827,0.18308450635977305,0.1551021742270635,0.142811199889451,0.09538176190527221,0.065605325195448,0.04349425254975135,-0.011790647984524142,-0.009243603512698822,-0.024718794525992297,0.043007774295649934,0.08052144773974615,0.09084622692317135,0.08095875616360582,0.07783702659655395,0.07067138506164501,0.030376893342456412,0.02438899453839653,0.005070990376660483,0.010432021619393494,0.004157023317151271,-0.0001424915758772555,0.008167030578186666,-0.0024937797595364773,0.009642220157802743,0.00012184769276619777,0.011303403016310736,0.04415059737763405,0.07357085751678993,0.10888960349922844,0.10405464315345546,0.10626330218497887,0.07332082420947623,0.25195851117985485,0.599367057437931,-0.08018363192514744,0.029296278014678646,0.1723588186464675,0.15773585639294133,0.16098508499525763,0.14896014765156235,0.14222129511313872,0.12251520639499386,0.10898311912415931,0.0620298299093798,0.040206508441632,0.001757850135602044,-0.025893470163800586,-0.018910687744383547,0.011633737830709322,0.07983361171982174,0.12314078362609249,0.1532440644350731,0.1267201686000791,0.12361846726610838,0.10985670731045251,0.1318195139748171,0.12998923078832056,0.1487726902974851,0.15569617338852582,0.6082160176179912,0.04171239651144096,-0.03701255836743182,0.1984432838516946,0.15739421777125115,0.17481022596140297,0.14342353186415688,0.1348209187061167,0.10517832634737333,0.07976373461456097,0.035298531452466794,0.01822432943371419,-0.01731679103992775,-0.020450097059421305,0.03154232942622445,0.09079352335942571,0.10113664969367017,0.08620575476538263,0.07396724031885453,0.03143179512184221,0.032975182846394654,0.021639609971507188,0.013501227506198669,0.01886926429875655,0.02170067672054133,-0.0036694094966718913,0.005715855541378559,0.012103646173917812,0.0219356202606262,0.041335316619805045,0.13450013855387427,0.161545627544778,0.11367276087263307,0.13586262167545202,0.09787010118005517,0.36171072221162726,0.4960226267521471,-0.15131337702632627,0.07658779125060394,0.16971663329127787,0.17983556622931934,0.15384295137317897,0.1671015030099651,0.14379507976145167,0.13539604140862024,0.10943030412028314,0.0588696366717939,0.03728092276568016,-0.004260386442823045,-0.013241650071110334,-0.029004394460593934,0.05378330261417377,0.116734716542797,0.16001943134754323,0.16552432648073648,0.1573846914408782,0.15295612219706975,0.18522963144517393,0.17210739072165393,0.22297342671385784,0.1594325170989815,0.3949836323007811,0.39552587304108805,-0.20269028356658336,0.13792947155364732,0.23861905000897485,0.22717656473660344,0.19340106195704035,0.1763765799192964,0.1457848466372807,0.127080181240664,0.07325197115330893,0.039803514478353334,-0.003941106024274541,-0.007670758676461133,0.016640917380671586,0.058769240614797186,0.09445675729451193,0.07175911898805605,0.04466031796838624,0.02529172900478445,0.018628159668048563,0.0003409019979990862,-0.0008317175749101368,-0.0034102706551382045,-0.0030899706449121996,0.005983240214956047,-0.0006566584091459724,-0.004436157352321252,0.014290822703415975,0.0011911862479555455,0.032630647154124205,0.028939516865071943,0.13052555148102374,0.21059804355588785,0.11983528458613821,0.10737639328796698,0.09144462123159877,0.25081618514885035,0.5796215524944056,-0.04047791985137376,-0.02223258058445365,0.1757284982208504,0.163631079930653,0.19811141089083625,0.18074520230229552,0.16978097766887357,0.14394917273133928,0.1295993149629973,0.07227031628080355,0.04839920621362358,0.0132312860973556,-0.008757113284583342,-0.028319346276130745,0.004970104296722991,0.05985104498574774,0.07935036252601506,0.10263830864140373,0.08890621620912381,0.07656068299156121,0.05620829669673587,0.03770001131445445,0.03966576951623644,0.013637767197890177,0.008422437629083507,0.009032330837504033,-0.0005537319025225739,-0.005355698141361499,-0.002818094777415816,-0.0014389509017167063,-0.0011350179625346714,0.007864328828469744,0.01091608498594269,0.006943805455860693,0.020326534331105556,0.031931999795254094,0.08372637575047542,0.10894857320825599,0.14651849296083083,0.10080108535562313,0.1320655831241671,0.11181413695109842,0.5546480867817555,0.2663545363027514,-0.16156639183882615,0.18771975131138735,0.17910889132827668,0.19511649076514664,0.16745802793997533,0.1751538538921648,0.15587067035062385,0.14149547017276334,0.08654475237531944,0.060857829564484996,0.02419570533160165,-0.00030164045577479995,-0.020220766026941152,-0.026320318246845435,0.024605938973202193,0.0548949442513378,0.08982717651732913,0.0879169265783619,0.07967037554641927,0.08305077139728226,0.05706578197020076,0.05464317870660447,0.02842403534514036,0.020447793808883098,0.011814099510226574,0.002140422748807852,0.00393584595684395,-0.011158311928306122,0.010708434130883885,0.004621322920452884,0.020038056295361203,0.026196836967926407,0.04340083626749053,0.09494692068464283,0.11879345009176526,0.15840120851411535,0.10311065220872159,0.14619184984093775,0.17452728263515124,0.6380450705868583,0.14832363812243238,-0.13147898760641588,0.2466152939400468,0.1916375410130789,0.22911297491783658,0.1936019850357406,0.19445201800262826,0.1678008897647549,0.13788015235449383,0.11598068374265702,0.06034982923484072,0.015919690108513643,-0.0035165911429321664,-0.03749283185279027,-0.0023980932828891878,0.04770247450072811,0.08997359714240762,0.09380647543552124,0.09430458110257833,0.08599141408034268,0.060115638833072325,0.04964539933061724,0.025855924459334316,0.029010802629783176,0.016010939650112674,0.0072219454928817975,0.000940092231037824,-0.004566383404930723,0.023180359380756164,-0.0007009718680777098,0.013840589228064255,0.031061276945549516,0.036521652555019615,0.10840686237656981,0.12012470893737968,0.18268597484129834,0.1195794999486356,0.19585554486416445,0.1250164334761573,0.68983012616916,0.42858537309991357,-0.21157760909063736,0.27704714117658497,0.2151362434261918,0.2629966290935476,0.22668143923840378,0.22198431870230018,0.19653367377109932,0.18204322307187643,0.130772140021615,0.11647961474173008,0.04516248865186163,0.039925537601606484,-0.053074798958526424,-0.016321151932741668,0.07938450020844572,0.10443913136954254,0.14253075891462094,0.12000028431294067,0.12029608856050117,0.08174445841023976,0.06943685404676084,0.05652294362007004,0.02990333779576828,0.03085907204106032,0.0038357667697284437,0.008573104947485137,-0.01003972905588352,0.0017117427768700204,0.021807069162465324,0.005768139679726438,0.01768046570650662,0.008275788782824972,0.040282095426559056,0.06312469228217507,0.04656107247971607,0.012634275630068336,-0.006678811456117318,0.006682390681288208
0.1872651596371478,0.8378013811103442,0.34677598295390855,-0.10832132827857457,0.2999427817558628,0.22888409640378837,0.256025273327005,0.1984616346368727,0.1956379671781024,0.1587397097979285,0.15108844186179773,0.09830172565557603,0.05730888572003037,0.012067828856558209,-0.017110305403075367,-0.0286105606914928,-0.006513419273029989,0.06115372554667282,0.09531338131712463,0.09562399080482661,0.08017801403638893,0.08130596239662895,0.0595415565460097,0.04393856595050036,0.029104402496669898,0.00371858906287295,0.008147401179670144,-0.0029660199984921803,0.01245695012187723,0.001069127994860011,-0.004401981162833426,0.014622402183963197,0.012683156709304111,0.03470897404077104,0.0696739278989072,0.09262789308431629,0.1313014691206581,0.1127055263649436,0.14331930234978044,0.12847732199559794,0.3913500403537601,0.5335499364796574,-0.15151912465560693,0.15916732041537668,0.22352746101794024,0.26453754040695443,0.23883834546928548,0.2682106157993245,0.27207365508600845,0.27156676202989133,0.2627246804249001,0.23584078545950324,0.23395153419237089,0.04353059596801506,0.05466182819943988,-0.05901030720963797,0.18391812235239802,0.2625523830933813,0.23614010012664752,0.22837190992661005,0.19975863282340722,0.17211808467074527,0.12267431789709671,0.0918084510026498,0.08318934399082624,0.029851925542829023,0.025406564981610737,0.027209928780503524,-0.005403725026510449,0.017222301310253933,-0.005431844148632585,0.01517666499302947,0.018768953129726217,0.02637833675073891,0.07790595166095715,0.09044466005000858,0.13367808206588397,0.09770089107325816,0.15532344351554145,0.1193044324252686,0.5846769040327833,0.30393098146279546,-0.15162132954155275,0.26997022274441684,0.2285969410645118,0.26749276245788367,0.25136388634298046,0.28126795484619477,0.2665137509117385,0.28278564020415226,0.27307137004380727,0.2669243359632743,0.18533523815930925,0.012198681323251498,-0.00797253228906765,-0.010217499055162343,0.23685436507717178,0.2586255742298037,0.26596890733909306,0.23989943009197964,0.1930530387432389,0.15089670507865444,0.13070823055891545,0.08069646442896683,0.055392650330260224,0.0491134297188206,0.011052928971254816,0.0016995100531432554,0.005395121166537411,0.010782575282871349,0.0005964014519382921,0.0005264508185369707,0.02239959420050435,0.03706369000577693,0.09047539538318286,0.1161622427681259,0.14128842883299364,0.1279403334742897,0.15609765773999035,0.2404385736354993,0.6221692711002288,0.006672792974207633,-0.027725878767889192,0.29422053057931435,0.23445978680199642,0.2668357692231494,0.247638570156354,0.26373740271274765,0.24812623635229203,0.24244279685964593,0.2136167312568548,0.19672050632238802,0.13304695837387495,-0.00019557756551464697,0.018445569585844274,0.12575299940886356,0.169158519588308,0.19574348899212995,0.19656591072842866,0.15235764643730923,0.13785445397410423,0.10748637624812847,0.0746683895895658,0.04690617753496837,0.014969242877922381,0.01577107567493887,-0.006129363521614679,0.006582091073808768,-0.00476210995738872,0.004504119395642221,0.009859821530734406,0.016825051467487032,0.04827339612141699,0.08803769368297636,0.11771331896021861,0.15494162304362488,0.12065440663606007,0.1827553570307689,0.15585478907338182,0.6192189124182642,0.13135386445718586,-0.08070749975970926,0.2925359544848395,0.23274923770883632,0.29112638468733265,0.2428081836908749,0.2710647547545046,0.25858943103254955,0.26123953813770545,0.2546651412629593,0.20047951366354172,0.1052892825456963,-0.03949896125842195,0.04651591672830339,0.20117560134331347,0.20285368512688395,0.26463527038841456,0.2706946613207288,0.25565718640777335,0.21561686442570144,0.19636054979469644,0.1950749810105862,0.14996375892427918,0.22115821023760288,0.12947535095091756,0.6435350415086494,0.2614763021686917,-0.12066486296231954,0.25512944502809926,0.1403667221359657,0.18897925947809655,0.10911005825271018,0.1414739585376819,0.10753317330079273,0.10097123843832326,0.058349537890997595,0.0324698782120899,-0.0040237505790364095,-0.026493162147984313,0.00881673363831399,0.04504533099680852,0.0948651834839214,0.07536955987821944,0.055644602449641326,0.054528926556086404,0.025899415552955763,0.024906264925938598,-0.0019286297959648785,-0.0028349204811178993,-0.0035291311892516036,0.007327124849737707,0.016850938755794125,0.01607620774363369,0.051346090689891086,0.09527885719933459,0.1711331176702127,0.2257498758499178,0.17320154907709726,0.21543899730750957,0.14708377838815595,0.5476491533679206,0.39660762355761037,-0.2172972589141852,0.21631806821678162,0.23909024293555425,0.26490066964473885,0.22941185522394078,0.22808918027839187,0.18005269151042366,0.1526819960275675,0.12358157057347255,0.06652742736643723,0.042183540495653885,0.0005210038144744555,-0.021399754853624817,-0.019769668472795574,0.03378485668813442,0.07419194683337745,0.08903551477928924,0.09266909100240978,0.07685005154438561,0.0894669294156245,0.05807631544812593,0.031203178524926007,0.01924592988218157,0.0038016337853885845,0.017796244805532623,-0.0006886543932520703,0.0008347412160057841,-0.0022729751282492836,-0.0003340522561163538,0.010838333637395444,-0.007205364201925186,0.0014981477350994948,0.007718202681396085,0.012346785313543529,0.008352065549865959,0.022101480814042045,0.03614749005056758,0.07175240039474391,0.12037810852752644,0.15136879095888164,0.12989821547248664,0.1456957533848639,0.11614949402774062,0.40779976067627893,0.5299791367617513,-0.17438026515898006,0.13023905271420286,0.20583921283684722,0.20900949195378074,0.20145149195243559,0.184854425797306,0.14762189860516678,0.13843190792992244,0.11696754835627521,0.08511337078222912,0.04526930978380615,0.0034808554288654043,-0.012156899474408999,-0.03012125542081803,0.0017081891177134448,0.03760010758319776,0.0763015507117779,0.09584291847055655,0.08581547594032102,0.07990017357670318,0.05095167434045918,0.039741293604638274,0.011716956709276203,0.010051828793396844,0.009371763088879843,0.0007569240068167165,0.00968460629114728,-0.008424040079874514,0.00809650477249162,0.007645068384572776,0.012595438304823042,0.03782912226762858,0.07749656562090296,0.11212552015290206,0.125584454785405,0.08359185724731784,0.1364446869334325,0.10779257777189506,0.5582425971080874,0.1958513193077768,-0.12518574504170452,0.19828417780541355,0.15251250059737656,0.1915447853106579,0.16548100186830678,0.1725108235167874,0.14168454451878779,0.15055284457983828,0.10481213854511015,0.07181614031151748,0.03038767728092483,-0.011939311605726541,-0.01985827175544973,-0.0287038563211923,0.02053536669745727,0.06824211042794713,0.12024744700798495,0.1309823361578696,0.10591119259864139,0.09234112364607897,0.06228863126644435,0.04391267286291348,0.028739963360008218,0.011869043137909433,0.007466774967395244,-0.005385037683057686,0.00027910812597094616,0.0012809968563588722,0.004525433809851592,0.02646663952023123,0.034196178940446034,0.0698085977404078,0.1159757865630799,0.16679619989667346,0.19573414517766738,0.1950166027975747,0.24412160367468247,0.2986134459814766,0.79113115337522,-0.006669070363990617,-0.03369331504722724,0.31845887540020257,0.23770622284636575,0.29084164189945955,0.22292224679803319,0.22483705276720534,0.18099617519122962,0.1661452687520945,0.1296717791387795,0.07510729027212712,0.035695744190658595,-0.011169767082145824,-0.02842094785213261,-0.008087068295500311,0.03805634303241922,0.0873540819488126,0.09143860190366906,0.11015082668450454,0.09541245332047231,0.09349274729628873,0.06928268912798136,0.045997299537642436,0.016247536137995202,-0.017238497716089644,0.004228615858634053,-0.001361965041849083,0.0008782641950099122,0.00968247691929736,0.007193701929237314,0.01796459604893014,0.014706097075116773,0.036371817848110596,0.07956676696591884,0.11430013806471823,0.15658379495871474,0.12167085454595088,0.17899793604826664,0.13380452019442676,0.4863964040562904,0.4565849773171656,-0.17504735982362205,0.2426622533185363,0.24004021929313943,0.287907846249122,0.2647723032159112,0.2517951574969314,0.2489401459060421,0.23324738543217044,0.24469587003565638,0.1707060338865635,0.07697060277214969,0.19187595744335237,0.08218739404882457,-0.007650065107313521,0.0827233490538613,0.20858685580351433,0.21171337465582513,0.21182958964157203,0.1783578339958835,0.13551047541490124,0.11567615197606619,0.07113383488940744,0.05769730106552983,0.019715942391512364,0.010766825713997204,0.002774068736305289,-0.005448966782724115,0.004377908533875507,-0.003222721051210862,0.010137975876408332,0.011436506578137927,0.04542404430989231,0.07989948407081413,0.10930706155320401,0.09707034733191397,0.10992355181353587,0.11374267273907218,0.31972256127893967,0.5342755562702403,-0.1210243500398323,0.08922535001661634,0.2452462597537268,0.23281878481651821,0.25908622851040836,0.25616564433479455,0.2649635882450966,0.2723465523724141,0.24017869866346206,0.2648505835125062,0.05610593910430351,0.013366141322212609,0.06909725184658962,0.043072726960669556,0.1778497471435399,0.19042888114346,0.2202109845788138,0.18600552274385856,0.16568048370065766,0.1309663062979985,0.09481829439348316,0.07106792526398514,0.035909151786019874,0.018270862584629146,-0.00018728882673836594,-0.0016442548152967057,-0.0018633435071237537,0.0007135616878760486,0.013775532900684406,0.018648471692876086,0.03687998781120212,0.06203666130078947,0.1023522188898051,0.13109523373397752,0.1336432488098669,0.1537399456394371,0.1714843409265624,0.3509266873069395,0.6540988709054611,-0.10940843083960519,0.060665845133678946,0.30700864087950125,0.2745280937636812,0.3108188870025211,0.28619518839438396,0.30470685366983535,0.2850037850272039,0.29164569189665185,0.2548114358307984,0.23723694786302238,0.09310075939019949,0.008519180315383765,0.04960381596341639,0.10628564006621222,0.21885371259675251,0.21851047569400983,0.21770828081462335,0.19142273032663107,0.15997854345214615,0.1337791883548163,0.09150730713019463,0.05513020874161988,0.029148683497688014,0.006984390076832407,0.013736966921988973,-0.0006279460914357211,0.005051012682714848,-0.0071724521410724655,-0.0018659069951183548,0.016363383935606716,0.015031379375481645,0.052379493368939975,0.09174143739559398,0.12291868595942892,0.13380159522818189,0.1302214413894188,0.15953340009486128,0.2722213660073828,0.5821514683400241,-0.04649552601453495,0.02448687081858456,0.2914994701554772,0.25493780605437655,0.29473738072613526,0.2543579426464825,0.2739332420290007,0.25260573918178897,0.2639619007652846,0.17797854104375416,0.06632085256944188,0.08539353153881266,0.025111924536090183,0.1123906503260031,0.058585989332944365,0.038671210064245176,0.21925548997948982,0.2061793687506981,0.1955000666398247,0.148940220024043,0.13080811025680095,0.08863626889429575,0.06682749219161158,0.045632784584271814,0.01411580768305417,0.014565792755090783,0.002657962786233633,-0.0012651954186072801,-0.0024621832656169284,0.003834745291837688,0.041367962021976984,0.046107441450250836,0.11049898154806406,0.1351084915332868,0.17396828871184092,0.14609109055305042,0.19184398793639545,0.1747131577701579,0.5223241963154389,0.4743746848976882,-0.21459963631270365,0.26448309728067465,0.27180498549485754,0.2856345588681716,0.25475830561771234,0.24189807580537587,0.2225441906576854,0.18005142944198593,0.13863565716419207,0.10644858635470161,0.046421129873135625,0.017646437836449785,-0.02729456433694916,-0.01997670573063331,0.007072972473484186,0.037961079351642474,0.06999660470145613,0.0703547196484732,0.07037446122210304,0.04395785936785682,0.03530655583694445,0.02597666237121038,0.009060487794397018,0.02083459316953276,0.011964091873053244,0.0056727569937458705,0.003550198562355302,0.001176198101938536,0.003536150487665051,0.01406432640795394,0.023331451033421824,0.051506826936405105,0.09090004154041736,0.1234933258673318,0.1001848727876923,0.1083185875338809,0.09116908341019994,0.29922140285570753,0.489121889278921,-0.13234433912518107,0.08891237958242254,0.20768199319858935,0.18366298667000427,0.17473954590841892,0.16630754020322708,0.16552458072375684,0.15479164504752357,0.13791351128144072,0.09375440503361354,0.057121949374696654,0.010242357337379195,-0.02084314531800311,-0.027407375124536785,0.010501748411209185,0.08279438183655662,0.10998163072563014,0.12951395048459993,0.1111703957001192,0.08305943424677181,0.060149152498704075,0.019821823274780624,0.013868992646761757,-9.59498529086446e-05,0.00521811405796752,-0.0003626610289445511,-0.006210161862954771,0.0021588970219205647,0.0024415975570212974,0.03505131625424854,0.02933029746960433,0.03170619872523337,0.07336235266620218,0.11180570634138251,0.15784089779528857,0.14831774006736884,0.20677113794396842,0.16549823295396435,0.47242518422729946,0.51271776169469,-0.18826689396680604,0.2138209639477052,0.24796246164383637,0.27433430976093925,0.24024567701971683,0.23479379807853534,0.203198957355624,0.16085792920103167,0.13147517726770275,0.08649084269026827,0.06069389889975223,0.014147330927174887,-0.019066306180091242,-0.01954515153096472,-0.007461603290284974,0.06320387159534244,0.09513337509324732,0.089138101217754,0.07836855233622034,0.06751590442929369,0.05929934928079294,0.039916671587026324,0.027169909535031334,0.005623177249659792,0.0175849484564684,-0.01006168165140748,0.002052447670849819,0.0070313256600441736,0.0033529397858792246,0.021389302235289766,0.0148301261027049,0.0646830505741486,0.09416701774728492,0.11760478179399728,0.0969517858532767,0.10830940072171008,0.09891509129350406,0.31776678695995897,0.5045264710512736,-0.11993132371731278,0.08328695839232837,0.19401554713715757,0.1644838776312268,0.16502713653646336,0.15248491105521306,0.16104141146029835,0.19483080934529626,0.11829227384445375,0.1013408014415554,0.052427373111478104,0.02043502093574969,-0.009372672990519342,-0.039738903695025855,-0.010646782152161107,0.21716872557268566,0.20216508473895378,0.11931249091265721,0.1419355156488763,0.12361813028861067,0.0529020666203356,0.05983531579475625,0.044988143336615674,0.056429940766616254,0.10383749037608853,0.050260334730660855,0.12502468839822573,0.08061958048397481,0.0929781183046962,0.07206877602111543,0.023722429897890605,0.09934702209010797,0.08946770035912278,0.09827032870881466,0.0930233203755008,0.14464216254250406,0.2226386869256431,0.21486365769783236,0.38586760558289773,-0.04271616910387752,-0.010516520741600142,0.36233561379392143,0.3376460755761438,0.33878540477189173,0.2468708999891669,0.2949653651099049,0.11891652062995982,0.0877771113090383,0.08192433090277804,0.028064454143454598,0.018388817940377805,-0.02295464529188843,-0.026463996061420098,-0.007292819446865029,0.02817323423662278,0.07252421847294854,0.07898584534921908,0.08422585885637938,0.06741217830288214,0.05981311867913097,0.03997378304991998,0.01950165332983305,0.011526809813621428,-0.006128073276245823,0.004259766776171315,0.0021616811651823586,0.0035222231188578746,0.011359076222452469,0.01025554492656505,0.03835986768814987,0.03921730166294703,0.06411302358738649,0.11418026800884894,0.15192717931853503,0.18736870664637387,0.1797122891535369,0.23472133032359283,0.3086452309983234,0.6431310901246398,-0.0543146468518304,0.05925755663837498,0.37595318280214984,0.29299552004030327,0.34192538660337135,0.30454308332895336,0.3157500164526511,0.29515113480145866,0.29557437168548023,0.28419702981178546,0.2470208617214546,0.21091841699026093,0.04741482118873983,-0.027837859012518885,0.04018531634878936,0.19771376528871776,0.23617088281740828,0.23834975604031605,0.21711649777643868,0.18051657470313434,0.1391682638746155,0.10810897262829085,0.05400654227899412,0.04787279346044445,0.019443677292680726,0.00437175491741431,-0.0012293464202471904,-0.010026105976128788,0.002863590278816142,0.005511684226181872,0.021827659778756316,0.018457814623188816,0.06417671725702467,0.11062842033680567,0.16571207012075734,0.1443435408106723,0.16170696866108375,0.16356932440371494,0.5478479347682964,0.18621394503128352,-0.08094186259499042,0.12202902441165986,0.18712372586218942,0.12747765522867777,0.029793273108778044,0.03154250970934393,0.23294522123801154,0.13206969282352943,0.05485557625495796,0.1336638383361706,0.050711504546158276,0.03767072366439165,0.021040805806268412,-0.009879889269749248,0.030817360862536912,0.11430606332858781,0.15104376788566284,0.15173034221910695,-0.00011023397587680596
0.07924521209716033,0.12149632324296503,0.12193396085090405,0.14130588203280137,0.13509115411020423,-0.01910245150421225,0.36588782485418225,0.4563415139696458,-0.06913466157629071,0.13552725375226896,0.059877975462437484,0.10431656534405354,0.053884743746679,0.09698188989986832,0.05742402229848397,0.11192574172302776,0.0970098144462927,0.03942189903981437,0.05059929105721947,0.04832527929903685,0.04131348747490225,0.1166337625579192,0.12727976434867594,0.01989801881272341,0.11700810847843196,0.14761495554067713,0.13139741295498328,0.19503440221234788,0.10303444064605581,0.12248084911338597,0.05857639992757768,0.03453498048410245,0.16523221521244313,0.24125775336795058,0.33457267615991937,0.22950386872583584,0.11497505103356802,0.0617861995272569,0.1663268119390091,0.6360143060117084,0.06500858382429257,-0.0011957803969479513,0.12252339944735759,0.1710538443431385,0.1604373774979723,0.09772551573380851,0.155671823633936,0.0802784832944652,0.14621752146340622,0.10421562377548434,0.1396219652813209,0.09544759171638335,0.0411335293010564,0.04276627143401851,0.09281589547854506,0.2496437876316084,0.28024355898325853,0.2606837537741094,0.22422844413675372,0.2044991966008689,0.21560383457873436,0.16157037982765624,0.22403550888244717,0.18598302473640355,0.45248923366774735,0.2797387318526191,-0.19248365346323082,0.23326303164469195,0.32123936061642316,0.29510238519166854,0.3034488900307686,0.2890269782191645,0.2809789195849108,0.2547756878644922,0.26760293472719443,0.16114211511705587,0.060919226950734276,0.06822959776806654,0.07694486551278225,0.2795941403234466,0.3202393965920254,0.29691525657380735,0.3122669804049788,0.2430991268958608,0.22473454878623542,0.0671283608505034,0.10007242625450216,0.08138096583955395,0.14780569291148823,0.054045797776844116,0.09641024595752758,0.18251903163280442,0.019072256985482018,0.11492399039735776,0.03108301587854275,0.09789266129954993,0.3436659289625742,0.21869967416510458,0.04761551779196215,0.08719597039132897,0.08789915945134578,0.6125680191641988,0.13864167787621906,-0.008133652695370811,0.04100047613809309,0.061524678609818695,0.15003877967650422,0.05900514270501426,0.13088053227969373,0.12304557492768325,0.05473953203285877,0.07489382209491169,0.144030985212897,0.048385049006143134,0.05055177540039026,0.05637231959304364,0.034641080502044466,0.12058218563336129,0.173670518653978,0.23059971169178603,0.22346777842334756,0.215046475822797,0.20071789371936533,0.21135144746168383,0.18365479037459195,0.24733127175263045,0.180337001804927,0.439128465400587,0.30919573268714684,-0.1725993472770576,0.0920340355386655,0.23876244226321605,0.22575358029161574,0.19005627998047994,0.17419683322297877,0.14201877213275457,0.106291132509486,0.06163033483103587,0.02397436617486805,0.03037249395201879,-0.021212208712746282,0.02181626418987808,0.06618301033339327,0.10785672257625739,0.1024824414762899,0.05275283419501816,0.05732777096162357,0.025821332519993148,0.00305577101503111,-0.005833034639573202,-0.0032816439797090408,0.005076181139593462,0.008759418830170021,0.020378888220427573,0.014186668871741826,0.024990435909274404,0.06381173819887301,0.1333287574750279,0.19760890904970105,0.11087383140351577,0.1518492094842973,0.08227709117871408,0.542064944360837,0.4318431001683176,-0.20329532151906549,0.2182236598985034,0.1955520549501625,0.2232659599674473,0.17541170958779412,0.1741405495420682,0.14137920001876256,0.1019869482705766,0.10158596933801597,0.057578012003997495,0.02227269481953871,-0.005974731985956467,-0.025013889571689246,-0.0023145394581818002,0.06473432892109911,0.15631104438777163,0.18777489092115784,0.1968797770104507,0.2112144174945282,0.22255003551777022,0.24268720239905853,0.2604229062811917,0.28983313628338186,0.3338040259025515,0.5794880782627752,-0.1408323070223643,0.013193161989913414,0.31592249631383107,0.31334356251618867,0.2973489740650618,0.2581193300120902,0.20927168302133506,0.1783078902211068,0.12027827900994505,0.07566438965076526,0.027041084258842846,-0.015972674672380963,0.0022789923637225973,0.04244998662461897,0.09321922630517071,0.0926530357828706,0.07745772756410543,0.05867007464805905,0.03310342135016097,0.04581077928503357,0.018664160094921663,-0.011794432410200652,-0.006742578996240979,-0.0031544988127467518,0.005193535930140529,0.0036497024045180106,0.011395024716741154,-0.003270526877483613,0.012469161946060623,0.01745986537458146,0.026456445456724598,0.029434365111852417,0.015828412744018413,0.07119748673573251,0.1159007800001542,0.17193173258624964,0.18124982511190996,0.1421542316001084,0.13450553515214533,0.27319449045311445,0.6303246307371317,-0.08041372960450666,0.05099136050757254,0.2699750950205305,0.2075113078571541,0.22829121377280456,0.1822802779546444,0.17370914694149944,0.1424304887124817,0.11265993917195138,0.09042391676543185,0.04698516065652616,0.030210155048376153,-0.0032501045339873996,-0.02268427058699552,-0.02030771558288054,0.02944134710907582,0.10816704427366522,0.1670107400744481,0.21168162086358766,0.2084883415205673,0.2128758950608046,0.23653635580615512,0.22988884080108016,0.27905420262404423,0.26481526368757086,0.3887646087109066,0.4787667748213998,-0.18701634115796165,0.033268752983261964,0.28867686095869305,0.29104902196680504,0.27260373879090466,0.224686202002246,0.20430466836768305,0.15557449795282643,0.11421922700264436,0.0530778404945585,0.023695575794970627,-0.004187517291734563,-0.003989651541415953,0.04281160042467822,0.09002088207302938,0.10485713685237472,0.06752539463314543,0.05039693709692473,0.026355564808089718,-0.0009421032749324513,0.006926912182643405,-0.00939614790430684,-0.0002346897106019964,-0.005879111088115809,0.0005920160159466418,0.005831431098935715,0.0026848770239596377,0.023267476127401956,0.023014135280011686,0.04319153952900884,0.06143691010336274,0.10821232402773281,0.20150121702264792,0.25606078339676197,0.21095074514725246,0.2426616963066588,0.19477235844485763,0.583404428066326,0.5367405590596884,-0.23896844218822075,0.2726619398112387,0.32052811726237423,0.3207777666999632,0.27653446478256494,0.2577205365909026,0.2166860513185681,0.19872710530879142,0.13743147962960053,0.10397116170791487,0.04831523824724852,0.008430483875241385,-0.016058471472437715,-0.025577168276105556,0.020943956474552862,0.05260857083425816,0.09929004141471266,0.09904149467728174,0.07967397022795428,0.07010051639610712,0.045523347746577916,0.04235284593044921,0.010717890847773066,0.0061884663326296045,0.0013980076688250107,-0.0010158560347084177,0.002236297018157058,-0.008619752263694328,0.007354573861680353,-0.0011637662077998655,0.004975739321252359,0.0027619008441645246,0.005257354358033997,0.020435647143182193,0.05045900246704794,0.10119046623635795,0.13531298763449742,0.13781239669410766,0.12995599085227308,0.1238894256439709,0.2781780656308313,0.686410762461058,-0.09093862749790127,0.03448393109054193,0.22566873777874602,0.20446987601156935,0.2127125023563387,0.20093914757525363,0.19206997293423894,0.1832161649262858,0.15813145440802923,0.1247591411101094,0.0903661059128129,0.05943692147924665,-0.03491031394424312,-0.043001480940006616,0.02966050377141399,0.06891649525364289,0.12204646742624105,0.1455641940172026,0.13188720567580794,0.11537932885345797,0.09424708269021213,0.06179996450793035,0.05004222520878289,0.031419406803367134,0.017894430651108795,-0.00854893451161723,-0.00045445769234591255,0.005809073060980829,0.004783382069111021,0.01338433177207705,0.008865056253311578,0.03910309268851917,0.05095141581108416,0.11148156004617414,0.15927797236167174,0.1326037488802821,0.16568144814617222,0.13709289886438436,0.3709070290641266,0.6426014093711515,-0.14879143582452536,0.09691807993069021,0.24158004540518752,0.232584091095016,0.21822067083005434,0.2117603460802405,0.18385987242084983,0.1635687715182163,0.14653761900512108,0.09635734038466409,0.06324453163844809,0.0038785082464280383,-0.022259547681034404,-0.03336949885023969,0.016326017358711448,0.08778833078422113,0.12368793315092756,0.1345022065343423,0.10474517023357009,0.08465773004650047,0.05733599580067652,0.04579243220644374,0.019189381864585173,0.005474516990467609,0.007279029849496805,-0.0009088440591498951,-0.0006981580813465915,-0.004931610805358148,0.014626696904987937,0.024478974016230195,0.03161476112001882,0.0726473162903719,0.12127121317758573,0.16860115764266861,0.19248904535720782,0.17053213737832248,0.2160273409415045,0.3098422786846699,0.699866022695254,-0.06477596293202864,0.03674866990872311,0.31263133119370506,0.24823616908566032,0.28073951562407085,0.231790866497912,0.23074412579609072,0.1900397039369378,0.16436342340442053,0.12328314224131011,0.06589885524216575,0.024703778950493784,-0.019734822446770686,-0.03197513962935326,0.004265814119174328,0.06566979372632523,0.0994797050594631,0.09528429301977605,0.09910409515915014,0.076230309909639,0.06336741854529346,0.04650820347299603,0.03320338427196295,0.01573850453635074,-0.0020835332244838645,0.009582208253967852,-0.005609754702310246,-0.0021011663083188824,-0.0031175806040612533,0.01596946068615644,0.018323508820863046,0.016104991496453176,0.06950611333445858,0.10097401121989666,0.14089201986547104,0.12955118363446383,0.12518864455780676,0.13700979945391306,0.3050004095216231,0.611791438243556,-0.10622171122662258,0.05200282835982929,0.21920885437007936,0.18227730926383734,0.19445987007778198,0.19042278666752535,0.1853811123371703,0.16337387916492305,0.1414065296956403,0.1193259939201543,0.06806104183293574,0.02848724726156848,-0.017201062836040625,-0.04203836200799117,0.0043446154145573785,0.054948029963981654,0.12219119754625128,0.13584361248082308,0.12377565137137002,0.10285270532813852,0.07541261956751405,0.07016646958428331,0.02574903312492976,-0.0032933052095165008,-0.004887988268255146,0.011439521978242525,0.018673503498521968,0.004707979033838826,0.012366701095325928,0.02909481528544583,0.03810905483046597,0.04420760832334968,0.08632296553918464,0.13031177983395253,0.17367759593838694,0.13878895498890267,0.20578862346716953,0.1512599982846124,0.5350445157640754,0.6399458773241226,-0.20158425923064358,0.22859008607263173,0.26423617922006776,0.26592055527391306,0.2267433590470549,0.21729741914113274,0.20006835546488042,0.16936519879061673,0.14641946840200157,0.09525544023737738,0.07170934820670527,0.01705581879262862,-0.02660363250548887,-0.027117875691271713,0.00554635028203724,0.07183693215111304,0.10882258240234895,0.11777454925863447,0.08447603821091737,0.0859725560925334,0.09132506698043695,0.06312451692179748,0.05614780378338845,0.038822343022965444,0.030934501779668666,0.021500190091973403,-0.015295371610335428,-0.0025747450637958855,0.007787475772073122,0.02543377225976644,0.005216249923473844,0.08595237732076952,0.13040579659174745,0.1707030297400988,0.14927311992158496,0.1749176732894574,0.17087403490012695,0.4607971104216106,0.6736732239276435,-0.20198318775533164,0.1740457943054373,0.31193835612970927,0.29289650581500426,0.29694172184943174,0.28263278736798897,0.27989727024627675,0.2746067709914326,0.2525254591167277,0.2241507053160246,0.18586276354486206,0.151581581205702,-0.03851584665515137,0.047710470395223255,0.16057714672015927,0.18084691564518704,0.21213508377449103,0.19878212003306595,0.1708633549885747,0.12062032189153561,0.08676375603395055,0.07636921428077796,0.03773679868354601,0.028173718316420602,0.002737777472706903,0.001514616699421196,0.00772492991287686,-0.0037863832395799634,0.010279806776057887,0.004482249492465801,0.03704033924424997,0.08002214314180062,0.11828644579686891,0.16568447694540603,0.11269055143542919,0.16661409520805778,0.12974276525332892,0.4689895965116734,0.46155825582995297,-0.17885713325761254,0.22370012110252485,0.24783196767191343,0.28943028700656304,0.2876459344758408,0.30257749296957487,0.306713348085864,0.2911474518094407,0.29136679656663084,0.2511160907886781,0.06422337418499235,0.024183144460405988,-0.0008940075054562847,0.03900689528119586,0.16100967990862564,0.23930284238092292,0.2759712971831794,0.27952779224224683,0.25017342586855695,0.23441652095035687,0.21322519618016225,0.20401942291952121,0.18258693013559693,0.22292862741029953,0.23049517226862634,0.7225103131768227,0.05540561427449949,-0.025497797796578854,0.24993091463186215,0.1661001377881674,0.2086932670476574,0.14246219404232513,0.1593502768431902,0.12423145028930829,0.10485507357231172,0.046264141742945034,0.00783463618783565,-0.000565818878043825,-0.02858617298173105,0.007994879245635071,0.07462790513045887,0.11415849499330291,0.10598913717792721,0.07984317278300417,0.07114432481410411,0.03340202190302354,0.034382889287231176,0.009385519259421814,-0.006971189556831313,-0.0015852413882187452,-0.013645843033086686,0.022716345226465283,0.05480636666413725,0.10302836277711455,0.19944581373551182,0.21531258699671776,0.13013248882600587,0.17759018863844667,0.17193280511141135,0.7029191394459561,0.1733479252591346,-0.13868643436114142,0.2612083322103755,0.19106697630445924,0.21902349368006183,0.1745543020950151,0.18693123467364886,0.14540272229490173,0.1253650088529041,0.07325727055847808,0.05193857116172947,0.004221564812234084,-0.007137734871749976,-0.02927847195665551,0.0074816621260161715,0.11190969380980269,0.15677168956805532,0.20067088371116223,0.19422307053064536,0.20999142837704682,0.16860518160160107,0.17780512610060373,0.1827580766360611,0.2630406085496194,0.22295825524894106,0.6567982379835219,0.025710282373834065,-0.06613460134751009,0.33555016877972577,0.24005093947137732,0.269175559883312,0.21711484016248175,0.21497887549919978,0.15713087666731274,0.1353207489267575,0.081300863536762,0.0441337304443172,-0.0007588168511604521,-0.02310814823341307,0.010374324799044298,0.05106911773467725,0.09158957490436477,0.08071386708134666,0.05735292581269692,0.0380064432074197,0.016585483055109075,0.012348764625850626,-0.002466602624828715,0.0029027879304901394,-0.0009911048217660975,0.007613018355599449,0.012896985090639206,0.021788237631102693,0.050266690031634316,0.10635409233039923,0.16347569107875642,0.1317031187186974,0.09772275764237454,0.13407537404632278,0.23127936235200902,0.6151407310694443,-0.0019603752025856417,-0.028405599855211124,0.27328038340628824,0.24013115670670954,0.28904070293275497,0.25802912633098546,0.2787867711156262,0.2671130364451512,0.27713996466663976,0.24018083004592686,0.126439234631146,0.09884225687285468,0.0007152510722526869,-0.05590116783172819,0.13427639826669077,0.24713811307896538,0.31115041679814276,0.3104306546929221,0.268379833079187,0.24723211933934458,0.22263025425609445,0.21352602107038687,0.18720180376748763,0.2035198357306556,0.23156568374897202,0.5548379259686705,-0.031031342034428446,-0.03874911703540079,0.28929509850696405,0.2750656794177237,0.2817736183559949,0.2938172322463664,0.2586048712477714,0.3011288475812749,0.16649283595042005,0.10108804763407382,0.09733740274186262,0.05110897330947585,0.08564122751748315,0.12959075998477532,0.2422826514751558,0.22739269128667458,0.1883619897340585,0.14312427452748386,0.1155521525994822,0.0663174237434963,0.04327762351359814,0.03959715949724242,0.021121400453619012,0.036278813905521755,0.010149449809500784,0.007838164559322914,0.009946774676230058,-0.009977852217908504,0.03649945951328905,-0.011361590684320551,0.029970897517567537,0.0344632681325344,0.06103026446886373,0.1618733187841037,0.16585834552579537,0.21769290504786779,0.15819372126998388,0.1894307118150234,0.1957451845798086,0.6828382358714659,0.07550110248624588,-0.059967621032153674,0.2845201985312442,0.2167885178027974,0.2303899747229197,0.17660810984307396,0.18098639947841783,0.14703662918858446,0.10865323178185607,0.07092614541332926,0.027848669857629946,0.014113476406508233,-0.006592459658159654,-0.012141531401522812,0.0013633099918799992,0.013323266669167935,0.09087286021488405,0.1336997577532904,0.12936265124547627,0.13906307615727015,0.16231727105136093,0.1851706778331787,0.16670136909699002,0.2271407256722575,0.21803948884391597,0.4735940858807887,0.3467751274818035,-0.19855938564351802,0.103290876939079,0.20770883051488803,0.3083489773497504,0.2539226428941996,0.1765945627972439,0.2480861685191169,0.20400384495705096,0.06559966672549675,0.05254513303286308,0.020585472229117812,-0.007588775445719962
-0.012995564822301436,-0.02028402865653882,0.06826737536500228,0.26249173305517026,0.247635640623784,0.1382503247467351,0.022570358422308187,0.020556506836942625,-0.009302973240150352,-0.0005953787317791008,-0.00353670637081164,0.0039289386926606214,0.0023154268002624416,0.001925268121667207,0.019365256391209715,0.032333798272524944,0.058502065220916936,0.09256678088148472,0.1873323310549976,0.22256189887069605,0.15134842889869365,0.19072411057902317,0.1929682186420604,0.6280854111285459,0.07491773784053056,-0.09788805192107063,0.2694167086302165,0.19444055126668938,0.24213836456688853,0.18261163911863032,0.19389983993546334,0.14845618637694932,0.12780535546567373,0.09043005769433507,0.04604518603754373,0.016546551593218387,-0.010743248902598588,-0.022952895780099365,-0.01635712997525597,0.05726337914321398,0.14400013650286803,0.21729132843209564,0.22922397634346164,0.2375942389234986,0.251896237085966,0.29030439315377066,0.28912786003491586,0.3767085243702026,0.3265687091327532,0.7747760303526008,-0.013710619840310285,-0.048313416724603375,0.4576164630266219,0.35193552036078307,0.38802368919689895,0.3011359664751522,0.28396084710516845,0.17800346029077527,0.06502606563050942,0.07380914619076255,0.0582217738539201,0.024881939980865825,-0.019679546514902932,0.024554362526460035,0.08413199703584924,0.11719938211809765,0.08553465457882126,0.05049418123845802,0.03492855739177002,0.03632006489207616,0.020490606412280794,0.018007727882545253,-0.008622572301459887,0.007087496351777967,-0.006821733844904102,0.009613703523114527,0.010294903401504824,0.01002759017901779,0.008648494596617763,0.006598538329087616,0.023767312026846732,0.005460025368018348,0.025675653822194593,0.031752638463440584,0.01906335543601927,0.04498146833275163,-0.018773622285761044,0.010200698485754152,0.006549204832506777,0.01522420381649287,0.004338719622372804,0.009737187074854915,0.02496829861420725,0.006095412579662607,0.05282126210776596,0.03795020513051253,0.09710906749659806,0.16475227703055192,0.23572921142282607,0.18266665241462704,0.20292925616333893,0.1961287973202234,0.6395436630857644,0.275330670742481,-0.1775607284755178,0.260854150171021,0.2021069083150665,0.22562500742913383,0.1786162475637352,0.1697452471248053,0.13892242819036063,0.10510771385855697,0.06761856408634566,0.042598673393630944,-0.012328340706435527,-0.0071269683364888125,0.009845011696751178,0.05994293339039335,0.07557326914546018,0.06301581590414174,0.0987618524252524,0.08688405904116304,0.10646150130103675,0.14644210274077507,0.14208746480531836,0.1950975782485947,0.1993471624958658,0.2739950784439366,0.24946304554161103,0.46574887373074847,0.41864699453750737,-0.22457729396436882,0.18208677289677486,0.3516192662208979,0.3387794314139289,0.28033868985268023,0.22738102150077927,0.19072585621214647,0.1331901246578352,0.10215961553314609,0.023179186891412636,-0.018116956819146393,0.006189797552119043,0.0314899103178161,0.049870251393095706,0.09541799794486047,0.08824598415635192,0.06309411965388913,0.04092510256430296,0.009720363720842022,0.01737038031197156,0.045412631457608085,0.06067380674420417,0.14946414891514714,0.1859482887837538,0.26320363235859706,0.26509308529261194,0.6288207021891922,0.18768709479644013,-0.15081439493524448,0.3483567533049472,0.3024274788623915,0.32953488363835165,0.32531011536462395,0.33497087435264455,0.35021681195694415,0.333253125022961,0.3018068979644541,0.17984806918726293,0.02039533689775381,0.06351506360519757,0.08470858708999368,0.1469554911268393,0.2981926886999902,0.29304008389430625,0.32567871054243663,0.289798606785621,0.277429905853933,0.22718941085815958,0.24980996089541302,0.16382983987384142,0.22279809999774383,0.5023420369239471,-0.03762165403491838,0.02628600402580254,0.1879489112907933,0.13437931058687985,0.030347288028548754,0.17105480160304382,0.1262247929840353,0.21785192799934666,0.16030452821291466,0.09070392709228721,0.05691666151589522,0.046776739760744875,0.041320369163600254,0.09965436832229915,0.08477555506163083,0.14611632256591114,0.11938133660653492,0.25835936960282435,0.27888557338798287,0.4794656974341948,0.5808956065198609,-0.10801107644411215,0.04514654350519054,0.25793172312870377,0.22504157520243437,0.21549097249680518,0.14890616944445173,0.14837368532220557,0.09605804651651906,0.06100783290534921,0.02303659805958183,-0.0037424520196076626,0.026127617567705895,0.10618914387377579,0.23005435687599787,0.2755368094532591,0.25139350052332526,0.28091261685115576,0.24129114609918842,0.630689024643608,0.4010145943848684,-0.19559938359866377,0.3413994983894818,0.29491126276403673,0.3313562839740481,0.26260250566074067,0.23452408475866904,0.17406196425255482,0.10524767325965459,0.043184681374536606,0.008641319157077889,-0.008141867109812167,-0.006147062005932963,0.08860614292397459,0.15746941476932674,0.1894725921450175,0.16156152481867625,0.15133343012479178,0.13538028726291257,0.17855233036712376,0.15347254428881413,0.5489312464271415,0.09953368515827998,-0.0968378540207261,0.28106952878563285,0.24731553132399203,0.22468643092858037,0.169362614923493,0.1341963779112205,0.06996911259327969,0.036588789504622236,-0.006566783886370498,-0.020355696938679703,0.0014105798208567295,0.009169223773788352,0.08820305966685117,0.11040972381562951,0.11186602252633918,0.09116534925075653,0.06747846377106503,0.05174662788217936,0.03610596228125459,0.04835471173781186,0.08322784311739849,0.1379975407782286,0.20210472014866135,0.21288396276866048,0.34893185334146365,0.5949788093837322,-0.11036936234544319,0.025182765871621684,0.2092432944511861,0.17092682696036712,0.16465196849821725,0.14901067756744021,0.1420222252245295,0.1439106025591514,0.14037201306850283,0.0839430079379934,0.04939162149439096,-0.008265418057843334,-0.017757738152300605,-0.005265562429277965,0.0195065976059901,0.05314148350433576,0.056252029725996036,0.10863195002769144,0.12926293647672987,0.13259835779125542,0.11664709886300871,0.0914797670118075,0.09016302776989901,0.12245762796743219,0.11556689771837364,0.21376716192330641,0.18620241765028922,0.6385613009965921,0.2763671779313258,-0.165245290295976,0.3234631388347018,0.2481468765409581,0.2640153143966657,0.1612416203519451,0.15247793354274874,0.07026588473728282,0.07781149796572683,0.05504280552993863,0.05192290979058259,0.02113363777090919,-0.016740750402999802,0.010834451821724062,0.05131278751409064,0.10483485841321129,0.11950854024742015,0.11017779588040376,0.14672389688239776,0.12083552531155178,0.20699406327116657,0.22405814546070452,0.6222883419939405,0.11584809435651731,-0.050781928273780565,0.2639731095114324,0.16185378268541964,0.20022880138891966,0.167208360546897,0.18208824708653762,0.15430179914867437,0.15986109343842655,0.09148977657171149,0.07105118883309082,0.013266452324690972,0.12661860929450844,0.1833683588615009,0.7272171645761227,-0.022329223141628485,0.08028272409770199,0.3270464860484641,0.2404037964005222,0.25901962284190017,0.18548468226190057,0.1773110044799977,0.11969006762903203,0.11936967975845378,0.11886697414122227,0.14515995000611723,0.18095892455516788,0.23444284178640767,0.2571459959149717,0.2893047825789084,0.22832047276990083,0.6029189852117591,0.38538502533556934,-0.22779096995977258,0.25156275722475324,0.22942943810495686,0.25921751558462097,0.22878926291387552,0.26309735131830847,0.17258105915170713,0.11898783320835882,0.061094836752926755,0.01220208101688521,0.015213413881569108,0.04720928509387108,0.17999399338541033,0.233626206747816,0.30165828721281784,0.2751271602740855,0.6020012050279924,0.4045485862279049,-0.16718727763743205,0.25116117580320424,0.17100697449681265,0.18527288941933295,0.13575812573686313,0.10022668130050436,0.10686361316370994,0.10260940961715792,0.08647087287814821,0.07465592657778897,0.04676751558946963,0.11024118619046035,0.1594023861300996,0.23163758651438002,0.23489503279506982,0.6010281837072216,0.06340554652680412,-0.015453254225830557,0.4023570011798254,0.35065951837326503,0.35024790393509625,0.31265079564852605,0.07195490094168326,-0.011454586203217995,0.09034969265348693,0.03606766299990219,0.02391504458173714,0.06637816360251361,0.08266168011783709,0.19466165341516162,0.1378569887740098,-0.019007484474955833,0.16897612377426494,0.036689892035911775,0.339129265764531,0.2684409957823217,-0.06120554109569889,0.05204326289745203,0.028990566182778472,0.06299796023531422,0.013838711698494103,0.1867494203222527,0.11767210613398772,0.06283737502046903,0.03748834456625933,0.04204806480244466,0.06502758370015888,0.0480005114669972,0.051836336575149466,0.01425352807263934,0.10970217952398734,0.24455448567123836,0.4524580091337874,0.08538334601335988,-0.027528575280957198,-0.009242558535376954,0.043656042060347455,0.12948418020716945,0.07406042767415262,0.08580825138109362,0.06616618652791989,0.07909534383995998,0.08746548734720691,0.053120271200285014,0.21318386040687304,0.387682883431351,0.37859468184626266,0.5158708144995386,0.07987147677731533,-0.04964814408125882,0.007914657908630112,0.05384300937823705,0.2877135861034204,0.14868443573348977,0.18837635244721865,0.12438622972815215,0.11832485235606889,0.043837992660052845,0.09118384604614237,0.21134418902553723,0.3192627873012383,0.3225418521726235,0.3217798840372526,0.323998707724533,0.44928631128479096,0.018699104903807537,-0.03047559513846617,-0.01665689404854045,0.03771053045299967,0.14609496031706917,0.16350474424996467,0.1801290960295852,0.02984449540648885,0.25806909251332244,0.20529211109596884,0.1161114081509779,0.2995732229966365,0.2798958510426683,0.3452920913492955,0.2712727785327353,0.2611434639401165,0.1969436616400799,0.3891816010580239,0.19223538423948544,-0.09581879115400052,0.0758238680989441,0.11254105519497279,0.1361456938798745,0.22313065006822808,0.16426932288403265,0.13839881062345047,0.04092976854406309,0.1186250648198295,0.15823161336249283,0.25759528199446785,0.29251641354377,0.28601249469462947,0.29425275945580415,0.23029035728422043,0.23181513538160323,0.20951222049643267,0.5295079738570948,0.1844095573486456,-0.09501065751145074,0.15121741438635328,0.21364053749057013,0.08029465178732453,0.08171732664866045,0.15697508324581136,0.15002826665501418,0.18814847218448055,0.0768221907360128,0.05661268760726935,0.0005351364252752798,0.2693191874395606,0.3483160511848912,0.34818527178038855,0.32854455687075174,0.31497273905659007,0.3672596368388513,0.6298000524605629,-0.0497961031623797,0.043704216098423614,0.23320799559894217,0.1735157657979537,0.17568335702816731,0.1590031724073599,0.15035516619992662,0.07782553350407613,0.04526312480751693,-0.0021398590807789305,0.006300756178257713,-0.003042978619292611,0.0837355727459128,0.11470542543624544,0.1202155387899442,0.088485019202249,0.05492363746004063,0.06895869478860164,0.05333507205105002,0.08431779685736689,0.06640977623088876,0.136863630740228,0.11756128642579235,0.49733077955715393,0.28473639332879286,-0.17815735869657956,0.22431346662705146,0.1932907008119043,0.19470315953636022,0.14416664046954855,0.1284007174907387,0.0944530952988357,0.05032523983994277,0.024796443520248894,0.00695235228950973,0.0007348324833616701,0.06328478444618861,0.09025160111122717,0.11126243993025321,0.10252588442177199,0.11197795893336962,0.11145706967303474,0.12869312002423478,0.1091029327138232,0.2830080061015804,0.4892277121141191,-0.13101409812176154,0.10276039702782373,0.23194647275884764,0.21756565740822806,0.19952687215413853,0.170138575547588,0.13651556142714055,0.1034215315954056,0.032428738012926034,-0.023284151202916777,-0.0338200017335428,0.013816381854631419,0.08670814933515417,0.11212767674507348,0.21860756091715813,0.08779671263826865,0.09605709687287758,0.05237590262211491,-0.008103230682977781,0.021215758815518675,-0.023527863972103855,0.1352105215098603,0.20033698542735903,0.20594992485136182,0.2886979176593512,0.3438896665700082,0.27926575812962756,0.4971104120714751,0.07890100646179618,-0.1463663457037013,0.17263003408649666,0.1391061288459622,0.171870335425783,0.16261863732094936,0.1780235766024668,0.13817124634660388,0.11024453241459863,0.05533323060099639,0.02262385578842764,0.004238824251964619,-0.017989176861604953,0.01700913445219222,0.02778511732369896,0.09553169141854163,0.0895860574614072,0.29553369815415026,0.3666267784876787,0.1984429472027915,0.21539612779641223,0.2691759575055208,0.5173392981281336,-0.14964359250251075,0.1143721590780176,0.250464875220218,0.2372746006291864,0.26369453464751896,0.2406572313161236,0.2290554595902363,0.17419117458093938,0.10658187523148618,0.05813173047239552,-0.02755068875838129,-0.03803969130513772,0.040631661122973756,0.11744482751158618,0.1639388300440317,0.13211774664218934,0.10313029897680441,0.06918869654516092,0.03926069363641078,0.019668633147624612,0.005548392214582549,-0.00012060212154394666,0.00473718463808035,0.06015554637406967,0.10857801193105737,0.10370805836267454,0.16535607711213365,0.132503963523107,0.24669795058715804,0.1552063130969109,0.6003909130670435,0.5117533459393712,-0.24773157252615113,0.2537503304262986,0.21377570624896183,0.28982683528789016,0.24778328418930967,0.21241668355618565,0.15506377332420265,0.09176344814488704,0.060858474698844235,0.00417062759779237,-0.007354560003795202,-0.015613529326314933,0.026113032421754098,0.09883900113668223,0.1316843438214799,0.17790245204480248,0.18019497855689665,0.1604472631866272,0.16427033241153557,0.1731175288076911,0.18962856265955214,0.22701969304841804,0.4883448960825435,-0.07039635074776088,0.037108226743810736,0.2979075355145836,0.2343208831958443,0.24659833224448555,0.1813406125282979,0.14530186131889844,0.07921158703425786,0.02902015576485349,-0.004349853694406845,-0.017302196006422313,-0.0028168681664713625,0.0459525430466717,0.10096584430452278,0.1446672066655485,0.1391685291680862,0.15932279287502624,0.13433468299913445,0.1542137218249062,0.12054030222499829,0.21738643532950302,0.16460855904965982,0.6064942787979627,0.2236177890985096,-0.1501057223077163,0.28687204756098345,0.17880100528046347,0.21401359967719968,0.16629899818380559,0.12222576276311028,0.07745663547744697,0.062088638348260485,0.017257877084506813,0.015885922000021667,-0.0005239357351451014,0.0006172545714442655,0.047074230717489264,0.11251079438298547,0.15749883674757553,0.17859577426929693,0.13489533020713043,0.1862873290603891,0.11999936091819213,0.5325232982305884,0.22867663483998457,-0.1313668936217366,0.2243121869129822,0.14971680617421723,0.18975579016615593,0.1451419368379875,0.15188218390269428,0.11543873010847722,0.09001483431137941,0.04583252114950755,0.003281737271704761,-0.0032571465407003953,0.035726370057137115,0.087426920194087,0.15428705197789097,0.16917674621937484,0.2077012845928204,0.190027016956458,0.5164812178195708,0.38897299000324415,-0.18741806776118602,0.15915948383223907,0.19414748383542701,0.18172190787310055,0.12916638669742622,0.11426416654709341,0.06474762223642286,0.054523740139339805,0.03980390496767582,0.035066160327651454,0.04123060294786946,0.06030265872347768,0.12624697206346044,0.15861622231952371,0.17793226175578478,0.1607361887974506,0.18912951672847242,0.17117632282223877,0.3147213007671083,0.33471397433310995,-0.15534455448158846,0.18576144893525304,0.23943077199364443,0.2031265100375632,0.161983182200232,0.107563821702845,0.06966909264488311,0.05121419584396491,0.005525053112670529,0.002550837649722901,-0.0023221309823487583,0.020157217562040277,0.09414230306955562,0.12184897196767924,0.11482067673392046,0.10252296834467269,0.091415789130987,0.05563856582281494,0.07620210075598995,0.1422734739506022,0.18447803607148647,0.24312673722244174,0.35608783982575165,0.5778688033859187,-0.11295883026705524,0.10290666541121649,0.2811598570672184,0.214915141220731,0.20843326069662796,0.12355211094320413,0.1068655212331056,0.07386512598515944,0.044658369022631844,0.026905278597486485,0.005242128763490797,-0.001643596187362332,0.0028014614660162246,0.054926191331303324,0.11273833768785198,0.11293535148806334,0.13636628743520862,0.13613499503056598,0.21594060570374493,0.2250350601585068,0.5144860418163821,0.3638702256699192,-0.12194666378256283,0.2987512674984757,0.40914608034087163,0.24873612007889784
0.040698043591903876,0.09858740378674842,0.17222000442988872,0.19114950734368671,0.19255277002467705,0.2076896456799259,0.2229263025138372,-0.027470081448605143,0.029951242234209963,0.32267184255384684,0.34023251476790417,0.624125970982632,0.1543835027684714,-0.04229518591722882,0.3186532193277949,0.2635462504646598,0.26717717492527965,0.22232850965509887,0.18652691092001208,0.12644009250360616,0.05950378880479861,0.02577703678993067,-0.01607172505407501,-0.0070858084993803945,0.07765614088826438,0.10097306859715711,0.09586304600501548,0.07322072347986465,0.03981939921819116,0.03176598820863503,0.005949489953622906,0.010280080563119529,-0.014595927744772506,-0.006106993613925817,0.02855461320009478,0.04869000172281003,0.07228193847139205,0.08803060338364481,0.10249166700985782,0.08647484286555243,0.0905580523900966,0.10955833355873407,0.11566393756387247,0.3187609364738074,0.48370500440569,-0.13482753494324118,0.10999530485803885,0.23213908209320952,0.21593946289045193,0.16404928756248935,0.11633244770604696,0.05813827753293273,0.03314151253023139,0.007230697422991703,-0.006674553815567304,0.01526346986921357,0.036835557361604716,0.06394211410073178,0.08477960478999094,0.09262022359510524,0.07658679653724536,0.06083277776891343,0.06277557996890143,0.05021014018098332,0.03595497293821983,0.10217889671768372,0.12104166506926678,0.21985176160526151,0.2052621345817098,0.5857564234138984,0.09732673469093966,-0.07513929734819286,0.27936270667965346,0.2021210421286707,0.24893018166567765,0.23031537484095532,0.2544709240652824,0.23203996284228162,0.22782492931689582,0.2488055659868747,0.18601862459404983,-0.0033044397087638095,0.14542186105048374,0.2204919720606715,0.24883565904973032,0.28017999640609226,0.2921217231979927,0.6831324214000962,0.1376460836837959,-0.011786730362993415,0.27462904764604795,0.15810642351879395,0.17329198137792484,0.09170789669204221,0.06913837011608845,0.036943143913590604,-7.973893040619045e-05,-0.00802636618198516,0.015744237896867637,0.04787569909171982,0.12299143975563759,0.1609565626223755,0.15032733696752776,0.1362398629732159,0.1311557758984775,0.15957534352385938,0.16720405799851723,0.24920600436625442,0.2617874796013367,0.6457888519922631,-0.04546014964636303,0.04901072661911362,0.34066735470344145,0.22007733552921457,0.23127655732058594,0.14807379535914394,0.11249123837112529,0.04364729476011677,0.02820134790586588,0.06010022694389423,0.05639850131972128,0.05351127299355526,0.060146276346577064,0.08135701143292504,0.07588426980660212,0.059142832267045406,0.03801873796829925,0.02461389946300132,0.03674454084786518,0.09023815509553308,0.1413273740120586,0.18167361582784838,0.17380610970554278,0.34553484915384275,0.5675551462608318,-0.1247761252993039,0.0351642852648641,0.1886352262367286,0.1766022346517729,0.1517969220714352,0.16071895753601073,0.1768580434389631,0.1642282019692923,0.14788488729360788,0.07261100101662989,0.03683569968510894,-0.023239605169897988,-0.01215571489828182,0.015804828544404074,0.03260629334707383,0.09513545669585742,0.1134596878669675,0.26923879928558986,0.4030339198208573,0.3308793739383684,-0.04972743793185825,0.034581187658340035,0.08208339251608138,0.06755890134270875,0.06768768505695759,0.035979429294578515,0.059915438115486185,0.06453223727060715,0.024050246996880527,-0.010647578576314327,-0.03330989218729445,0.004196808009157298,0.08046491091696843,0.10065824763221923,0.09311880121400237,0.05808516772934912,0.055804733366466276,0.04200824764837773,0.18683080983325395,0.2939622462490003,0.19878191063186718,0.18975177302694493,0.2659294779475722,0.30814654051923557,0.6079159599123878,-0.021276235042578903,-0.046371321700219556,0.24611281097415041,0.1580865668887592,0.212743587841787,0.19246199265939315,0.17510272213160577,0.10860134947794595,0.07539021565486952,0.05787551901396588,-0.004835459447989819,0.009375348312173647,0.009387752595624245,0.03045785738388196,0.2571739560284122,0.3111668101570371,0.14984252070981466,0.23444650261220135,0.18605891361065666,0.2478115700932436,0.15446137012722996,0.4085076351147311,0.5275879906142044,-0.218228346782249,0.25057841623211025,0.29085680676976144,0.2519145444217877,0.26889218636694734,0.21995951013059792,0.1999452395921782,0.10817364280517573,0.05041787619905256,0.004664484167251505,-0.022262570371838927,0.010560968065419368,0.07499693873662407,0.20882893715674888,0.26319089035512533,0.26652842554735323,0.2219239011331436,0.7100260072092527,0.1999253493693703,-0.10281645344727909,0.21624472178016213,0.06728245642862338,0.12012565664378412,0.11058657823534968,0.1551929149315934,0.08710129333014652,0.021185660452973324,0.00809524120618928,0.016017843357175276,0.027274009754265634,0.00116690394427902,0.034324262698034874,0.07957796799579615,0.08527337132100285,0.1026989583309095,0.10492373325825743,0.13780902496684858,0.13526347480617826,0.1272170487266156,0.15218758760975898,0.1680824647727402,0.24544303906995216,0.6712267816568394,-0.098143006580332,0.06588266388409847,0.34121253200058693,0.27085313897791213,0.2716741132879239,0.1898753116350004,0.16431599601469699,0.0899330570385149,0.06567212689143918,0.054012786408156606,0.01577390661329589,0.016035564936615416,0.08553815434585832,0.15052030911914888,0.1983765495746607,0.2169249727209258,0.21555310761490976,0.21206733820874543,0.26773144008079214,0.2729083276108556,0.5976056373432838,-0.0956906492357828,0.061499448394944464,0.3762119929182822,0.31043839964951275,0.3366990155502146,0.24165100539827422,0.21573785747111407,0.13273488940065073,0.06678589045008076,0.017918317933368625,-0.0240499251334847,0.0030466025919864445,0.07134509966019419,0.13125320901968934,0.13341603234762286,0.1026728927189901,0.0758815753951088,0.034132376894184385,0.004094280718800673,-0.004018314761386723,-0.00425873605749147,0.03541645233699762,0.07861919390187376,0.1537112762867802,0.20453148527506732,0.28644211209369747,0.2406225545109783,0.4567875245782181,0.4917928836861477,-0.1759128980893434,0.12887932527250204,0.3148632784842366,0.2918388112667757,0.3315387354573199,0.3272920384032653,0.3662620854052369,0.32107513039848395,0.30437809438054503,0.09055769804711891,0.1146778989351533,0.1067774450937526,-0.0467862252023572,0.216284227923423,0.3181400672076265,0.32519506493155154,0.34446662167762554,0.3262872379781348,0.2784135828607885,0.2189952448302185,0.2197387128641092,0.1979851514474499,0.0018727517237906192,0.16533325885012798,0.32906142584075326,0.5744649670245098,0.006918194571079562,0.10804694268060851,0.3402978486185022,0.2085272446149855,0.1969752847024802,0.20827439332884642,0.10244588556781686,0.12285280968370153,0.11095920172378268,0.150179062430819,0.04687096483708013,0.13159551667136882,0.10123040218243404,0.06470602814987193,0.21536226369330658,0.3064883436922168,0.3185890957041914,0.6097431846173901,0.1709089814244025,-0.05626890901682981,0.24756638935524752,0.29883515698209984,0.28556720727174845,0.2801536301077491,0.26807720002212726,0.17899435364527375,0.09172095576527223,0.1082846527927776,-0.01660277146738125,0.1784633635143573,0.2843251537693751,0.3431785514205832,0.29099975019948865,0.2667237646664655,0.30028247353550075,0.23548601148710419,0.2605701282829557,0.21479516843612756,0.4348871066860572,0.4259401468282563,-0.20664592055616982,0.2414284702287065,0.32752769329091314,0.2520282209894052,0.21109644067567365,0.14831296051303305,0.1182843430586979,0.07953761261244961,0.049859779159047025,0.0006508778548891379,0.021852909355477852,0.09070621329902488,0.20920376816423164,0.24440730418665874,0.2488139198328325,0.22210525332369327,0.300718781649198,0.2011670939588858,0.5773097528323432,0.05645897463130023,-0.04525191803383214,0.3848665926275052,0.30001903583313794,0.3053324185524292,0.31227564670988617,0.3783996314987863,0.18988256438908055,0.2847708465980394,0.13617247344055447,0.1796526557549838,0.19014818728144223,0.31066122033074084,0.5945118996319098,0.46181844536553157,-0.06487034519805258,0.26986859810693026,0.2778427530566181,0.2755422596191014,0.04818173248550682,0.07321360580191112,0.2513787213282147,0.14768600816572852,0.1489089077464428,0.2209198504053408,0.17611696595272286,0.1354084882346782,0.2166092712485601,0.26279725073168875,0.20717539320158895,0.04241861592736366,0.1743113427263492,0.20931387557507897,0.025619693925528764,0.06303882326049666,0.17426762172312182,0.18408442540457928,0.034733097903655634,0.10284841266585941,0.1179463246231685,0.21741834904913845,0.22052886516787737,0.13801476457212988,0.18531146316088287,0.532612775734065,0.7479148924639305,-0.13005606121412155,0.03614967969664422,0.3587134109527405,0.2594789628663952,0.1065995653813061,0.18819450587651246,0.15051496851863763,0.18346416640753294,0.1610924836523764,0.1641265880315882,0.05975095115455154,-0.022763720603544077,0.059758244949295734,0.05022490809230705,0.06759184504850634,0.05426584972232789,0.10412040678358507,0.12397645318958916,0.13793687253905793,0.13766454522896843,0.15738919296566475,0.166222539257002,0.20204984024979755,0.250275784732162,0.5877122943330972,-0.036217246557605186,0.01646508884042844,0.3607901917207576,0.30633941430595707,0.32349731352769096,0.2535036193585958,0.1923386178825305,0.12275781905349023,0.07552499209306131,0.03695136030474888,-0.015606397332609994,-0.03548536355079108,0.023534535093438846,0.06650225432159494,0.148505964677813,0.16294845253484122,0.1582679709184261,0.12880496143141834,0.09818388293705681,0.08095876318820017,0.061259394855999405,0.09793147578945853,0.12395840650648467,0.21317492793415083,0.20529932139578136,0.47054635035472797,0.44573791092244736,-0.19149071970295764,0.18206281708100405,0.22481734371466808,0.22257384172503467,0.17608266547264043,0.14832670533834674,0.13597316583003852,0.10929015364613637,0.10587743008280852,0.04589078424215814,0.02200268227286064,0.0016474795673895072,-0.011274278039377991,0.00815577488475425,0.06505069431338951,0.06704738794189753,0.11772683560106051,0.12781040626773643,0.12953468104655394,0.165729963095442,0.15870100945723956,0.18327182946460005,0.18338071767318967,0.34666671204417315,0.47327650038858077,-0.1313626549811972,0.05273112424806173,0.3164285374445398,0.3151676841796703,0.33337743105701373,0.31907638103898905,0.30829119509763664,0.16698555432027629,0.14970804462690174,0.1571836936930177,-0.030616319157042077,0.08783927281461879,0.10387257897340006,0.2116562817934809,0.2500186959414198,0.23699145501271437,0.19820881837112145,0.13340350867799897,0.11709531917323082,0.09717845198410696,0.06782840410372991,0.09922430934278535,0.12061830426304573,0.21052319431430072,0.2327832202637923,0.7254024803758352,0.10460070520932892,-0.07253899970011503,0.3169029960169131,0.1890591072953217,0.20593380985480975,0.1187884623785452,0.1138499721311216,0.05966725294346146,0.061640178888571845,0.03573882338991843,0.0035097048887285922,-0.0015061102768077217,0.0002634961085693587,0.05751377641475319,0.09455713873359824,0.0909625350707102,0.10544513808878131,0.10565772706883673,0.1627696938840072,0.17840297794853785,0.27529718180494844,0.20392954297493893,0.5323207195256267,0.5329804163854297,-0.22699629770998192,0.19154684026155613,0.19716781140660564,0.24059625800908602,0.20277071423598803,0.2146082075978704,0.1958927344263387,0.16334723958728667,0.11560823870968127,0.04251074287272447,0.039936338039389924,0.07508847512069411,0.14459784474165985,0.19175524707978353,0.2873429844747781,0.31994060185580603,0.8248781310048628,0.07851888377753463,-0.023553474412556154,0.32500572634708913,0.18231131661568048,0.2106813838600431,0.1427394273605887,0.1124042277040068,0.056047912894380714,0.02589857813438126,-0.010782577298875377,0.007582117769368708,0.03936139908247233,0.08484454300517054,0.11075307506881676,0.10488907870734733,0.08551882761098399,0.07486764551049749,0.1234826149409772,0.14022499626968493,0.23017643519240608,0.19243181492066808,0.48285146640625354,0.49288091980063586,-0.19545107400355047,0.21006604185409644,0.19223861743427823,0.18603927413004678,0.17243512525970806,0.14389469065137936,0.12080231581693937,0.08436824287869639,0.05637412660974373,0.02663243726319639,0.0006467645533732481,-0.021005834338998906,0.02681333898833726,0.07442898723948414,0.06561863975021251,0.08021581538390607,0.07689684234932574,0.12606985060236828,0.11598310625044196,0.08372220066460083,0.13434279661337914,0.1168070747118846,0.1862140580604516,0.12628209881092925,0.3442896169038118,0.5473677054991108,-0.1665540898716097,0.1897961467021816,0.24162788760392082,0.23635865244212326,0.19291111251406046,0.17538288499536595,0.10051897072975212,0.07270442938706996,0.032292994835471864,-0.019176066339651923,-0.0009876354100719702,0.034458431607962046,0.09056865765622125,0.1539258016069148,0.2056562253372527,0.21147606939751273,0.1641028926077506,0.19034781888257685,0.21291414813481746,0.5009613629210204,0.03848247617392123,-0.01071550504087936,0.2446359088965693,0.19308651420369946,0.22928065116526777,0.1687693581719214,0.17829217195505948,0.0951772335822336,0.05113401622300186,0.00046109613656720544,-0.031722694065505104,0.0039206878702941475,0.09426145929095238,0.16096911002884376,0.17346841329876855,0.16783545835222624,0.144123671119214,0.14755269095887857,0.1667593880953755,0.08125944621803588,0.12960095590025134,0.14917115272813275,0.2977655212315087,0.6046646728262115,-0.13207766902005047,0.12404609099454832,0.21666111700754925,0.19042916790008577,0.1785337718516449,0.11401932594707564,0.059393301006286356,0.0265046978170477,0.021121402188363152,0.03780139810768239,0.007300237419237392,0.040391084841611316,0.08492148507462843,0.12166882665305971,0.12941234586510192,0.10842703985324884,0.07461112475036723,0.09302606354217632,0.1129393099972313,0.20303394340078781,0.18642291728089272,0.4127641692515002,0.5121987678543062,-0.1938717672278443,0.15394834507730015,0.19738883363734955,0.16144758741669477,0.15876726491221022,0.16020401714963936,0.15361584587252336,0.12013327370465494,0.004959780623941624,0.01222248388087755,-0.007287081785544212,0.015297599596391685,0.045856407384579634,0.07696872744466654,0.05333029678823161,0.05096945858182071,0.08783936264601085,0.09910317698514523,0.1306411560424215,0.11291816635253914,0.10424246865720858,0.10663716497949693,0.21068873366369686,0.14519504828839286,0.5585616605956035,0.42638599213821665,-0.24291171136358822,0.254012158265375,0.25964954527289713,0.2828506033765957,0.19535744992041895,0.17714761724604142,0.14366040617959389,0.06278052002532816,0.013184380466280083,0.01179433931349133,0.012522324905148405,0.03492650517707222,0.06373970699555949,0.10271517897244122,0.14645432728739904,0.15569888874664012,0.22611008313871103,0.20595820545662785,0.30063127364386183,0.2132388420461633,0.5584677681539543,0.15421440244741028,-0.09847880978452385,0.42217156697335617,0.20581276247989938,0.26977616576532715,0.2054942680178361,0.16631707300687543,0.11498045468754248,0.0869044185935748,0.02094511311061408,0.0017362312325635348,0.008601410160609937,0.014856180547114213,0.06492741467990243,0.10625687542301139,0.09671731171306407,0.0963886563002538,0.08349754195364424,0.08877488168803396,0.10804708879138057,0.2099457975178817,0.23746827383035823,0.6560101462019253,0.145000892519129,-0.08302215695949003,0.3240064387695958,0.25180911111019255,0.27320754247479945,0.2266651449813354,0.23621375679682613,0.26259991098318514,0.1549801623071912,0.124788648924724,0.2398456947897908,0.030465721507438714,0.16853962503942385,0.2702682733031543,0.24419055204342605,0.23662307087643122,0.20298715075495255,0.21594026332284288,0.2437504091758478,0.3359199113815811,0.5866152719539819,0.03588014171902889,0.011037662363340297,0.2847084872213633,0.17218424932327978,0.2015469129639911,0.1459686130094808,0.15733495277569978,0.1286265344228674,0.07366670679203284,0.2072350821589799,0.22951382052941502,0.0384377744509162,0.1812510298213308,0.2283915878924996,0.1733681136999607,0.1294546974419904,0.07992611442996676,0.09133575910210848,0.09044174166124927,0.07543768848352021,0.05617285828778048,0.024898148945416556,-0.008619426427519275
0.20451146695775307,0.6255547372821635,0.38470274281703387,-0.14320011093401683,0.18053007656194192,0.24561841363985581,0.22110279422463763,0.269522927636553,0.19704207922646652,0.1221706517143022,0.07769222752548634,0.027322911058138853,0.04799958697886015,-0.03017444259081688,-0.0056526420894465286,0.02616341233110126,0.08970203619423812,0.1316337595565693,0.08878620732567387,0.10918160073868949,0.06076284860151137,0.05461216400518195,0.07560295255830599,0.05325345152965606,0.10356831468878817,0.08802917812354064,0.19481009388062967,0.2579408216793949,0.45156634686322195,0.5151034468118351,-0.17774747328523002,0.13396155326207157,0.2531146786560584,0.19028823873065986,0.20420370503655685,0.16368997570401553,0.13461724338278652,0.12116434477131573,0.11744641535703101,0.05425294609482166,0.018545459835811528,0.0014200317866957949,-0.009612440785907088,0.06908348232256627,0.08938095103523476,0.09807655201302191,0.1452740716064876,0.18746232723534673,0.22329301962179762,0.2677102761273069,0.15009926053239087,0.5536152896794302,0.3651726731982719,-0.2160661833340652,0.22393523086604603,0.2369501754230678,0.2688848962560719,0.2526630210328657,0.24499640153909039,0.1636105988145779,0.15006859693161273,0.0794119692824954,0.02388654238756924,-0.005539495506870987,0.06920904204956702,0.13775016620473346,0.1307502584744627,0.23231939822823625,0.2292949681457011,0.6543053898228042,0.11146367873586471,-0.05585243373046466,0.233825778471802,0.12520577211131617,0.20619803569757178,0.1323143550785609,0.17776889091898396,0.11685723228175485,0.06083192088058455,0.11357525913628533,0.10033618369415638,0.14412979517107644,0.15294709444325028,0.241283494432875,0.29583090824292263,0.571781738269531,-0.04761746044292635,0.10616619517287043,0.2826608743991595,0.20955566134064343,0.19660190902256,0.14513477914528344,0.12485020723233133,0.0717907369462406,0.00890439374513635,-0.003473828905216435,0.06380676051237116,0.10592225543639948,0.18680306086787102,0.15091485410252523,0.1406299898549547,0.1304171016307937,0.12376912261780684,0.15000149170812715,0.1441818247562904,0.13316259432725636,0.5237934482313872,0.20364776647718716,-0.11114604953699522,0.26770453865998456,0.19144324519125844,0.24012907232205688,0.1616553275298329,0.14309337388133314,0.03213005522812218,0.01421903890923882,-0.008551816580108843,0.03421714770809873,0.04473621841693887,0.06922794511240939,0.13134708581172524,0.13042715569456229,0.06435774094801773,0.0705383713739759,0.059335743433923074,0.053467695755223074,0.027820219972410427,0.14078812446741062,0.1460938936206683,0.2618376821578809,0.19150374982090101,0.5824234968160432,0.3831196803918378,-0.20850854747888894,0.25088196393928264,0.19252576578241695,0.22890192701063414,0.17014234016630433,0.1790155662044934,0.169848433181713,0.10830189291388377,0.12025944546396199,0.01988760700122827,0.021131389501032737,0.021698432404690993,0.03186776490660541,0.057738370868099916,0.04919024605304189,0.09659070683257952,0.08460793731960405,0.11620145060180921,0.14391888860496754,0.11822382382445085,0.13943203825221562,0.15003026057227847,0.11596787598492508,0.4138658598346427,0.32918482496997153,-0.18113128722458854,0.1884017704861576,0.2522423019361728,0.2516709976464125,0.2007428191615395,0.19186681729634797,0.10319653090134637,0.07404191856657354,0.0406782535824896,-0.0024286063594887164,0.02166024742073701,0.08601821637067804,0.19767951879742274,0.19454698606182716,0.19212142844266888,0.2712517676271408,0.19140411922216158,0.5402076013854653,0.32946518092681054,-0.19030546562421768,0.2027211246832591,0.20268767613837482,0.28464212853437193,0.23547282333338787,0.21176106109609175,0.10180651071228632,0.07388297048613782,0.05405171250058903,0.028707433114257098,0.06840130690389296,0.1424387908189085,0.20569343360282624,0.2967198060069043,0.2907298574470151,0.3486346248760992,0.2963437948796261,0.5890165288054455,0.0716578865224952,-0.11255256449950488,0.3483206009892418,0.2589542560358045,0.297432428158306,0.21871918275305077,0.24048056798023162,0.13986809741150105,0.07800695262050752,0.023317058431353944,-0.0044397642198545926,0.018612964470502983,0.04336824831764244,0.07754439165571407,0.09808619132065886,0.10846624842955466,0.13519318698303123,0.12704362950314524,0.12737859566459933,0.1004966944439417,0.1076744537642381,0.07563509823823324,0.17749048879810808,0.12923006148610677,0.554513004299368,0.2411271905455295,-0.12367412440715383,0.35645209657086774,0.25378668224113915,0.26652801285374184,0.1901231647398554,0.14311721206671504,0.06432777294314086,0.025443802735120754,0.019472074473140713,0.05428121375816752,0.0715096962044803,0.10118300346461183,0.131205753068313,0.1713047385997098,0.15974336636006498,0.14755844660491946,0.16785246851203137,0.17425954951809675,0.317295230294774,0.49947300367011355,-0.1273021562732887,0.15339068962168687,0.2995410346242515,0.23012335504690734,0.22323302041469956,0.19529978808386006,0.15898993869506298,0.1536525331489423,0.15020591335658556,0.1843194184143989,0.22585631066919687,0.305477668295015,0.33594270990846203,0.503999082630368,0.30595417851694257,-0.1645420916607444,-0.054178882102350695,0.2200808353454253,0.3420200636224175,0.31153132671739,0.2940690097109472,0.24261037687514728,0.19521080879801475,0.12540396536340295,0.12318614226281004,0.18489369453833357,0.23660420244984706,0.24433529306435858,0.2686442942676699,0.29993713740144057,0.32954782538505617,0.3477961201662357,0.42179322784333617,0.43159921910037774,-0.14171002733811305,-0.11422994081710656,0.11152512318609466,0.312527429452702,0.3459540502610146,0.2966175705308875,0.2516813321638771,0.19032216925822942,0.10957394251956468,0.07580288980328796,0.050706837022011814,0.07548990673283816,0.08944334242796845,0.09499387126503585,0.12778143601662736,0.1592099142794119,0.1628532737351443,0.17983925135402828,0.15948960243152488,0.24245598928699694,0.15577576118418504,0.6011929700713313,0.23699199201223156,-0.15563926688130608,0.34170788131450924,0.2875820061490131,0.4000671888711055,0.3451368499571767,0.3295447430666035,0.2515634973627213,0.22670583430844748,0.13734700740766317,0.052328561936895425,0.06008129107547001,0.10789562684950806,0.2731710941255072,0.3168972597861579,0.32451685059537433,0.32560009836764076,0.2528076556570778,0.279125648181748,0.13803867378360474,0.32674725801508364,0.2762747421928656,-0.08457402111331307,0.06556705559102007,0.10061203143238415,0.15971927160284308,-0.052081235149084075,0.14082087375242924,0.14826800195795006,0.03989204846213036,0.020183518824621178,0.013903908738546076,0.04647475152109302,0.16772098024560228,0.14330136144063052,0.3187696346628197,0.19521315525805455,0.21266369503067076,0.5813900175157021,0.06743242320754503,-0.008408992034824174,0.13823965808607022,0.03559772311008985,0.12058661812374996,0.06675526047985203,0.12173576153694611,0.05526358107999865,0.05311219125050722,0.054667895727644265,0.012052239159801179,0.13517264096218692,0.1730070246554067,0.14696142257083347,0.26947831898728586,0.24030065874398696,0.25479064616267466,0.23991918489228067,0.2053425466761844,0.10544375189978651,0.4904262270318245,0.1698899484505481,-0.09112316195263322,0.10601455041207275,0.2951142051030657,0.27939877248444733,0.31168028717118396,0.19492187954686352,0.014846061781680644,0.15139922233988723,0.12960468422044394,0.017744240674019696,0.06523956596510079,0.2623414494295078,0.2946141363107515,0.30866715963861063,0.2975770661462426,0.265071479104654,0.25981559298729184,0.29606540848127166,0.5833065780826062,0.024105443352782915,-0.007055216606205668,0.28430315985526405,0.26034221277767505,0.31628018727949936,0.2719330737632271,0.2876003765105769,0.1530212383458694,-0.02018441147240311,0.058041693282708584,0.060630841537219864,0.19185645258059514,0.29460833663387553,0.3062180222717203,0.2991031850704692,0.2724331109487545,0.2578652803273196,0.3805449317198641,0.5947661973185341,-0.08480660293429626,0.06770456072037394,0.2366246977766129,0.20121679934428083,0.2228921043398816,0.17255620561002408,0.13856171508981516,0.07766132161723811,-0.01203234813916474,0.05623302965484256,0.09289619788691487,0.14647126132979435,0.1688228936139006,0.16341127339632,0.1496147555525418,0.14469867682278556,0.1307802666548238,0.14975971104214303,0.11627058680605835,0.20846787583053047,0.14196546393352003,0.5880008187216851,0.21441807738213706,-0.14007320504038362,0.2962224901433351,0.22043519050894617,0.24732238903696027,0.15764875621800778,0.15427654953621386,0.09907651971973065,0.07379085033040197,0.06706890238049018,0.08326934436470901,0.12549807776291824,0.17080850100823422,0.23382918412713566,0.20917952894130162,0.29027032993186747,0.2533884096755972,0.6948566042017205,0.15315851586996787,-0.1331817801812959,0.35314997691899125,0.2550857458015391,0.2927511826565401,0.18734982565246386,0.1629720561507273,0.09531912340962846,0.03884757251850162,0.02412100724270169,0.04292901131576364,0.10375724728356595,0.1909420475777391,0.22955894034466603,0.2671711524368135,0.23605861195883487,0.26303784311521655,0.30048615232913356,0.5655867292158084,-0.032142909839791796,-0.016586471274606253,0.3610248310286903,0.30551002252550197,0.3535256567673418,0.3052053142038195,0.2614000028328338,0.21212913355299554,0.1198683786425239,0.026458480040366536,0.17213054900665514,0.2521880646593366,0.3413386922058414,0.3362129223577465,0.4129567295502977,0.32019478844662164,0.7404375171271137,0.2338811078031381,-0.1352838560741276,0.29596245276404526,0.1621452135934288,0.19955326213253632,0.1570551114083201,0.17784018863013465,0.09753944648883504,0.05950709462931373,0.033611584614942985,0.024470888787344814,0.07047269902604819,0.11572844496969927,0.17878145385065697,0.1601331851766341,0.24210142981781257,0.20582180591582225,0.661423538493794,0.22507863582952567,-0.12469740220105724,0.26934176303552104,0.13816684953536584,0.20125938699084303,0.13297347869741177,0.12605850868494084,0.08419106216796857,0.07342576548832179,0.06701246328442031,0.06420865206714992,0.10387331069724996,0.15581698185422044,0.16130938284847002,0.11281477679039544,0.1427661870550178,0.18231712883620985,0.6504024108199636,0.04880605560489756,-0.024112939480321758,0.21933334643000785,0.12171572011677091,0.14004436413504892,0.08287212404276693,0.06212762890369475,0.00280125920499134,0.019967524529755084,0.059021035387433786,0.11212981700438533,0.18464581464346666,0.25632683072961965,0.24683107453543374,0.283240582659195,0.2399694219213384,0.6293879121012191,0.2453817234621403,-0.16349792600715704,0.2650548393246366,0.22481215467474402,0.24554347915124725,0.17269503283441134,0.12617973878081884,0.05740652021762651,0.045486761708905955,0.0050654422675688714,0.01671353577273999,0.05308923970089827,0.11434466835029782,0.1383630011569017,0.13332806561329527,0.12812329507938586,0.11108255806598248,0.10344735770335035,0.14087762597826226,0.12652485331724062,0.20094039884250417,0.12740634766374717,0.5945553514859842,0.0874971360636608,-0.07424945505190658,0.29407673678018215,0.20445883154591027,0.21530382377896792,0.1367433401364846,0.11719179225512819,0.0541630210179158,0.0055634811851394675,0.002071772380992975,-0.0013882549745375102,0.03547283810971855,0.07063573970280057,0.08217502223638298,0.07660172726746885,0.038143842242148375,0.019846453674640514,0.01183016429569973,0.0016834703302362711,0.02260057946680645,0.057532569454005554,0.11022422386427923,0.12225463589255844,0.1434904778307808,0.12860021500453747,0.21290659735265735,0.17411037222224698,0.5454047717178286,0.20798620055136577,-0.1348987467033893,0.2700075308200364,0.22321331398848085,0.256406932442295,0.17633030947810327,0.14299125486567105,0.08945865523175238,0.041803161526940635,-0.019314419757352045,0.019779888768727338,0.0712419116376464,0.08921465010561466,0.12144470875993058,0.1487482682686195,0.1189717712350499,0.14901531555222997,0.09141280303545592,0.1193378570651128,0.06722009537170169,0.42308758042084055,0.30848159999260066,-0.08510214126256838,0.21102242979692998,0.1342777767159533,0.1920165123984518,0.13901477116341318,0.15113796522466175,0.14960437304452623,0.08938124643639292,0.12919045325822487,0.10728037664764521,0.2661499792732728,0.2486044786805249,0.7106383450368308,0.06950978863864217,-0.023843208668611685,0.36146880434754824,0.23343784266350337,0.27631435773053487,0.2037572834296269,0.24855101685143557,0.2004047240603404,0.1559728343794011,0.13370111806996002,0.1239504136457642,0.15161064409194178,0.15559798503440203,0.11638978107871188,0.142589911519011,0.11306915084769585,0.19607824723308548,0.2208372937586347,0.5892724833681066,-0.015579343055185735,-0.056789829144105845,0.24061741295065725,0.1755698443626349,0.17828760882132727,0.12172022650827735,0.11747958711759682,0.09899474990407768,0.05967779999339851,0.04201041301934302,0.019902535190633237,0.053405389749307024,0.07163613916892854,0.053314962308896985,0.05014897445013341,0.032196883288149444,0.07350801901351305,0.11295111109979952,0.1329392189496881,0.18088742447724207,0.15230279289172963,0.22798263824219636,0.1623549839053728,0.5402013784227221,0.32445277057693417,-0.20710324403443028,0.25390333105010016,0.23829724653421053,0.2906336348616872,0.24204618385686974,0.18984706461148365,0.12781029410420497,0.07355597046043102,0.032445304881315286,-0.0037407805895488025,0.0006173299670596581,0.08304545057091663,0.09789001520981076,0.15052799741247522,0.16005975521570995,0.17660409082504175,0.1605818797890062,0.18571906456334844,0.15286359082406856,0.1881062783396361,0.15571800345142922,0.6432357129934887,0.08567088611821373,-0.0395553322992354,0.3510168133052892,0.23865999750285408,0.25660618630735854,0.17584045883268948,0.13836547826225457,0.07346884436695468,0.04638928018099919,-0.0034419363480185003,-0.013749434845656501,0.018367969085875638,0.0858103547294481,0.09703656471694742,0.07968371533973284,0.03866086239143843,0.025154898273806153,0.03308413028716925,0.02308075658869665,0.05178897777777807,0.07137915524354391,0.10384748519964879,0.08714761832675733,0.09999687935612021,0.11580539443649614,0.12328638553033706,0.23206286410199806,0.5669143405009012,-0.08220155233882037,0.05143085882720082,0.24934666077971446,0.19702263060508077,0.1961000335976246,0.13649686041099987,0.09632780405620409,0.05224295241037544,0.012613328460589756,-0.018089032371734586,0.008301192419395354,0.07945032764547272,0.1496575784665147,0.16407963699615116,0.18822568646225954,0.16114827378478225,0.16530995384025188,0.14928025024667563,0.1942656582888137,0.1360316958894098,0.47282024891948754,0.248823611072545,-0.13612509465839842,0.27618736428271645,0.18476763153953352,0.21798470992873845,0.16700402342157492,0.1579743468827548,0.10685156969497492,0.0852789994456456,0.054320358031110544,0.09705009468213396,0.16498633539859264,0.27230641859453114,0.29168450040552363,0.3437919584653387,0.2993452125722986,0.6761445662459861,0.0733847576241202,-0.1268210528866521,0.3525462449268592,0.3016023077184487,0.3234990911267355,0.2598592727831593,0.21059400195290456,0.12549136734558836,0.07234726144788102,0.04218219270723357,0.0386334005674292,0.07235082805682307,0.10126673742425217,0.09558398348203814,0.08728266314122154,0.07700501798941141,0.03731523855228762,-0.00816908196977776,-0.014861902971736084,0.0018994384571547531,-0.011902257278645741,-0.0006981120628360339,0.02701238263819528,0.05059267175972302,0.041823785830454714,0.07161279418972356,0.09080123874964206,0.07314800079232425,0.10077458916780785,0.09382781676580483,0.17247858868119675,0.17938986495836776,0.31039620598434825,0.27957350443460055,0.7374998814553141,0.3226582600131372,-0.21456234299428806,0.30848581086664184,0.23860797588486188,0.24287345059940016,0.18020789639157594,0.15195547944479834,0.1236367525966379,0.12342074153991091,0.09026725882086593,0.06991572238082085,0.03571227142928029,0.04328490680250131,0.047490904407172,0.044495268526692264,0.044772136986190834,0.060046330193244,0.03639411501015513,0.036238206447147286,0.0320022939887706,0.007982578810205044,0.0033691710056832137,-0.007919820231607607
-0.001902033128230982,-0.016316528000046446,0.01739981752545307,0.057153719323450404,0.08618946614157628,0.0890238551331425,0.07665408617355202,0.08663880112681495,0.07992272524846225,0.10306665610683692,0.11212914219766904,0.13383920111832762,0.2633977819197658,0.6040808917816187,-0.04759592091288982,0.08667110543199792,0.3325912073129117,0.28582442015777243,0.31227082170016734,0.2606019202064955,0.2534422382598564,0.12693304647287101,0.07630552649787314,0.08954912715773437,0.10891413486059275,0.19289832794494474,0.17079687221329717,0.20246290264205025,0.16850057472610133,0.1378324675713335,0.07787246178393584,0.04080026716380703,0.025185446167051404,0.014906833867002795,0.02110855692093282,0.02552102228791645,0.03454354602925555,0.04230552226584602,0.04442423706370171,0.058236645943065095,0.06069750653528817,0.1321405546669707,0.11983605291117636,0.2140836205720054,0.15363201310089344,0.5733510532382802,0.40370630081519454,-0.20581734592691356,0.2577936990416817,0.19867681589237315,0.24000924674446494,0.18470300954486854,0.19840751637811896,0.17878009307426418,0.11236436638002088,0.07189823495545354,0.012143435429574037,-0.009313280355583977,-0.009980979578785475,0.03172328824032363,0.07273109358030828,0.09011246696520205,0.08667983504927879,0.06670385311639913,0.058779089446605856,0.027402816564877808,0.021353309600864078,-0.0003281295332576863,-0.0091703568489767,0.00465587132275411,0.00040240557065019885,0.025492893415332465,0.0237948759987507,0.001476415639609456,0.02344256633918459,0.021854362008986127,0.021498607196144066,0.0006604289729764152,-5.967047676101957e-05,-0.008115388506939448,0.023152205552892047,0.058519683285459756,0.07224362612911484,0.07990034105643314,0.09056108324552574,0.1054125100649114,0.13177935457665252,0.12547292570354496,0.1852046110117116,0.15988104114193993,0.6575099880906451,0.1174166220841667,-0.06844303469466503,0.27731307391236054,0.1966026404893746,0.24267392633404905,0.16383512666266478,0.15068290334545822,0.0754365742620709,0.049381303959033944,0.0326234738615923,0.025469318334414973,0.0028755021803551894,-0.01824032279335806,-0.001607740505275411,0.02750548832571524,0.058012695014622695,0.03765560123594967,0.027074815186537055,0.01601099525938805,0.03367864709945244,0.03256874070438937,0.08385275207190988,0.2571188102677318,0.23550426124710203,0.023783807719340806,0.007000401954323118,0.05619091403380166,0.08718752631552329,0.12672493904964152,0.17655245845061826,0.1918580055264319,0.16938087922174297,0.011946994865848022,0.07464781290760317,0.06793278812120028,0.06306309945705045,0.2845023313857944,0.27846016234997656,0.29744144519140153,0.313140137398906,0.3141386798580033,0.3557502008864861,0.3230798459823318,0.6410361907926623,0.06464663050697672,-0.06285945441838103,0.24924315380378745,0.1677505190835991,0.198617302064636,0.14079777455955123,0.1484508799170839,0.08217462827717749,0.046140780902322945,-0.005391898430992157,-0.006855450729230144,0.04149991511791863,0.09871049321724963,0.13725290476132587,0.12085602269687415,0.13356738865811651,0.12619822977358428,0.12730250595238718,0.12230080414883318,0.14893621608615948,0.12918395506402386,0.27880574267436753,0.42388816548331093,-0.1599631125797427,0.17519968352154283,0.24183114410033166,0.22657185833979657,0.20020647421944845,0.1542067837224983,0.1219104442449472,0.060496842572176995,0.02248480224381235,0.016635869104871356,0.057247983859956386,0.1407471831775095,0.22741282781384728,0.24294526220723311,0.2830036894112064,0.28070273413539365,0.7868017594481305,0.07847088094683759,-0.027011115632171248,0.31986722043715965,0.2204754707237596,0.2705415965357901,0.19278801096627574,0.17600361439610673,0.10236250668096049,0.07080842417956976,0.03430404313421544,0.043617700278462346,0.15540556234605105,0.17024168434315956,0.27298980825460234,0.23452976608490414,0.593910466030447,0.398819925610444,-0.1653751280892868,0.2313041695493725,0.1468721694691204,0.18956003199486754,0.1378072133227102,0.13623788266631812,0.09334001028510548,0.055977617309767504,0.045431826741918285,0.053932982414244386,0.10992961440301914,0.13629864348980153,0.14195136212640855,0.13789788815498846,0.15376517611312088,0.18387608198974986,0.20599116801619347,0.21797356323939435,0.32163483726515435,0.49150887762864937,-0.1507877419550408,0.1300414371731079,0.3004632318639721,0.24370889500115295,0.2335303758034424,0.17506864876862896,0.11259435933162339,0.056750507644779076,0.008013102774229773,0.006668379988590636,0.002098771340270591,0.04766616711773978,0.08515934530849133,0.08716653350866162,0.08558716966748944,0.054867819205365854,0.0461059279621808,0.040365657890157315,0.05344973908761303,0.0674561578373242,0.07468068554890465,0.1488658207014489,0.24636484898742433,0.5741494828690101,-0.03967780187907933,0.08967901095221825,0.28719476316548115,0.24851184280880542,0.28504461767278816,0.26375409787560034,0.24457910271908806,0.1412343523882456,0.03418958578308957,0.02537304831098322,0.16681389559429954,0.14857051135139396,0.2544528104965067,0.25260164872951135,0.27620142585277,0.2285272538866292,0.25204168852630676,0.23597247586861594,0.5816664964649383,0.11828628368381293,-0.027277459968823883,0.2401268844266217,0.17640461444333588,0.23285881664887392,0.21081505745221396,0.242867344870527,0.16903242788711384,0.11701323218143708,0.1430368103639172,0.10461696635973677,0.2168560665256103,0.37931311846547183,0.39483341225781443,0.0016074086869722842,-0.10196465002407018,0.0989697681040917,0.32978670114031616,0.2513921233281193,0.23900908229437773,0.1916984920095629,0.15615770213311747,0.1352679806531821,0.12011959428142432,0.1359741616537566,0.160696613297151,0.13245345810966805,0.098771750557207,0.0418957999834205,0.008110256619645262,-0.020738253446065787,-0.014656684622935325,-0.0007473354688852551,0.005200751240074878,-0.00043294201354753025,0.03081035526305353,0.08866515248826991,0.11342862758162901,0.1157428910679607,0.1327086628313377,0.10636324479230175,0.17516481499524703,0.1328709694438091,0.4759967604795748,0.4035222119419201,-0.17619725787844095,0.1328630123676802,0.22479718193717474,0.20828814042720492,0.13995667999138994,0.12032277288564681,0.07348119289805925,0.031762983735948824,0.019005058782278036,-0.012502322057528685,0.0246010064735885,0.06720678012386384,0.10203690507260185,0.1010312214975154,0.05369340863883071,0.04509701427999723,0.01143316186437669,0.03169555695409563,0.02140435248349354,0.008796205174827775,0.06185012673606733,0.07818433593346516,0.1228478926538078,0.11134670083047407,0.18503387567063717,0.17906784691362704,0.4078906529509352,0.5409529021856473,-0.1675882714377549,0.12005549061857265,0.28271652752070886,0.28374178470193884,0.2615245918719701,0.2137507831773191,0.15624434955368582,0.11232889355852363,0.11462053168800858,0.02669709929491061,0.0008879078701742308,0.08564408984512352,0.1292385006534622,0.17117636253972673,0.13750756855350674,0.14687626258628647,0.1148049355599305,0.12177693820682875,0.09981639661924999,0.17204304146604385,0.12756666675592607,0.3815015091346388,0.5982924954449953,-0.15639575450751705,0.1630863906888807,0.32318781275188124,0.26009478699129535,0.2544184607789442,0.2592805695940422,0.2603396459050042,0.1887468848045051,0.15359202315977308,0.04603376121780165,-0.020821115220475837,0.23379496041920594,0.21790543468128856,0.2497450303857794,0.24190713867864963,0.2145626008400648,0.17591181092503935,0.1964232167654973,0.16493458158051721,0.1876781709024684,0.16316097383310232,0.22204321417134626,0.21925021471439926,0.5590063599282613,0.41262455291905026,-0.20966364663836964,0.23623392590262973,0.28454763168245234,0.27105054490063113,0.20965650395081364,0.22728288839816316,0.08363307217468068,0.05741890891665572,0.08163552993606926,0.0425967339481377,0.1043848638883684,0.12821724249078073,0.20832852659801765,0.24690274703905538,0.24493058283696859,0.21473903372486441,0.25132673356497043,0.2317542098279041,0.518133652526995,0.24268242312918245,-0.1879923858296708,0.2822888706640423,0.23482917562644426,0.24174247904903917,0.20114109854996726,0.16212026884598268,0.12271541592273333,0.10441692441299001,0.08789565255572158,0.12445871889097049,0.15340433966736178,0.2341900861222013,0.19939027581313362,0.2774913502076788,0.16636094949559194,0.5592545948411941,0.4750489862552155,-0.22197848183171132,0.3074118499321402,0.22929493711279972,0.24863661901672138,0.1611713017137156,0.14321842486640676,0.10241630175403386,0.055575299217130454,0.01820309473803173,0.03119240343889176,0.08342843431097997,0.1396603822253424,0.12724862616738788,0.1274292268715447,0.08335070381590712,0.06110900807889912,0.08758386387875144,0.07337854790557709,0.1600692971664539,0.10052759241354527,0.5255439684860447,0.1893319312848548,-0.1378167704274894,0.2283930930379547,0.12534982898700678,0.18742482987999906,0.13262217270941012,0.12190236599761549,0.08891877870015306,0.07422355971775553,0.05975982181751889,0.06689471086827982,0.1383875773331488,0.16572840691058052,0.23763413585704182,0.20424849867293055,0.30586224603485707,0.3048946901869216,0.7611898914000025,0.2604192407863412,-0.19957462515979163,0.3280537730779451,0.2671231014885113,0.2776146015370073,0.22507381417969904,0.21684896018151267,0.16588481487447046,0.14022016112782443,0.11951752027421567,0.1090311327462925,0.15652985701719052,0.18166118766081205,0.22456935092291985,0.17664296934504614,0.458790285665918,0.3451177816756789,-0.1582068355437195,0.1945679677758811,0.1499934551214801,0.15390852105977107,0.10800144103917153,0.09931022471200482,0.04946259837943956,0.04977759819022153,0.027842511929509275,0.06782175726627675,0.10547333498386599,0.11813194576870471,0.09698736160971475,0.06505756550368146,0.0845150669774648,0.09550383686764449,0.15827606450656037,0.19562735921215257,0.221006782587275,0.28085843248043685,0.5137093288684197,-0.10986832164063148,0.08117455585257759,0.2842764105748448,0.22347133401688693,0.22175593958881298,0.1880660877420905,0.14524191377107395,0.07829214937711629,0.024549144300177253,0.00981319386717457,-0.008277200614524534,0.024044893499790825,0.08314806276120904,0.08301348618196096,0.08315368326419635,0.07941418527286276,0.07385656544675691,0.04586874968037773,0.006755685244378592,0.0019064852914724233,-0.004899142370499996,-0.009228887811669485,-0.005822294725925951,0.010869879329339114,0.01503645994526568,0.049414613358794685,0.0851396376162298,0.08866572966559495,0.09321840454217073,0.109630458026695,0.1282499032647205,0.1512690832054759,0.20048760721087217,0.22316505523794086,0.6235136044148537,0.09369422440742872,-0.09986992573067012,0.2623402798461886,0.18971231807104896,0.20829048500163355,0.17229007375274438,0.1364265930714652,0.08842352588719092,0.02340445639888047,0.015412332307843429,0.036660983830505485,0.02677557327075095,0.030775919275466728,0.06641544982798904,0.1009930543240275,0.10948151590751763,0.10017257590349883,0.11048604277173998,0.1538288532102369,0.18982699036090064,0.21268420465616944,0.18743233430919848,0.437700898257585,0.44687339107865404,-0.19344719864884627,0.211258758016182,0.23536867898251904,0.2563824126895031,0.23566610852805112,0.2186066010611266,0.2256901646840062,0.1902991352534718,0.11215821517340883,0.06866667468255694,0.09495918436608988,0.18324771045930519,0.21895885510247604,0.3076812478235857,0.2608621111986916,0.6700940293144291,0.13550812888781696,-0.14996229185335527,0.34900099900513953,0.2659345728887632,0.30407327757706837,0.24119895130579014,0.23834506860773283,0.18287007654651163,0.17456353033465413,0.14264710246156687,0.15391015276530676,0.24226764351637198,0.25353628532273015,0.312112210152284,0.2530825424187799,0.574520508633132,0.09322675020553486,-0.12012013943197511,0.25636054596517305,0.17939080768651888,0.21791440723965166,0.17344626129308705,0.14198439641588453,0.0764295651317618,0.05143110600996829,0.03394920778059578,0.05365893195288204,0.09421041261922096,0.09539970397775394,0.07148042339195529,0.07338475225152379,0.05909245145213617,0.07846421367330439,0.07557283842498173,0.12664846692100343,0.1400281024047125,0.21086209413032048,0.21737883802214397,0.523306838669257,0.018711301923520402,-0.07879661084096042,0.2645937373248691,0.19225875622703295,0.21249956122881722,0.1680380770670217,0.1412074351095297,0.08985185847992244,0.05529019290671717,0.031155912865855725,0.04279483655251098,0.07037614687990783,0.11735872443612767,0.154877611208599,0.20196432127698202,0.24364629579765465,0.2624224044049284,0.3099829714717902,0.3124397490999766,0.3938301081352955,0.27934521960420855,-0.10497692940469787,-0.074729928832918,0.10377418252820712,0.42597765530413295,0.3711510219735348,0.37856352048051806,0.3034824318931315,0.26591305009613897,0.23368118798261314,0.24112501600267827,0.2932307098254493,0.33270719630087836,0.42627042167420587,0.4036004959259031,0.5703176994190592,0.24672191691459522,-0.20690744341983405,-0.017308112003223,0.2285936584127237,0.30826215763882814,0.26606247504580777,0.25800953389561376,0.2266466071630798,0.1897667149217355,0.17823981076310047,0.16183052751467797,0.20776910967485676,0.22252149768547128,0.21360561247599344,0.19054306209777788,0.22920100593264842,0.26379093182744684,0.5066229991101605,0.2815586121443214,-0.21943843197865928,0.1673526582202617,0.25324886558606957,0.23053834406611937,0.22578412888099708,0.23159238087515172,0.1803836629465743,0.17224597523452098,0.17040610403388448,0.1995198673870875,0.22247754335823797,0.2769024225744704,0.267168701999702,0.2787605124631191,0.32793386364520594,0.6454924641040821,-0.05087765525114621,0.0033206378031030437,0.3402629951940344,0.265827478743839,0.28434808292506275,0.2247012350905696,0.1959179210462403,0.13848985162012487,0.15024779108364505,0.14424858654586217,0.24145959824856378,0.2708421298920932,0.3398709342864442,0.29998983227013676,0.5441855972769488,0.416699526266113,-0.21567146987327057,0.22702939490085544,0.2849810640172014,0.28326462656768603,0.24830298036072984,0.2135156618351968,0.1850837532629056,0.15306414540733967,0.16632505287614138,0.17004600427881966,0.21771176934523784,0.25715294589994153,0.27243231195785,0.28766206665994737,0.3962505048055751,0.5505966965659563,-0.14015912607223288,0.09728848711330652,0.2984679440697752,0.21851587934411665,0.21354628063146075,0.1556701372909847,0.14145237466067098,0.06621857194245041,0.036519284508946606,0.026597848126941083,0.06610337625230289,0.10385664331934087,0.08584725944702114,0.08439604879777428,0.06216094818949482,0.08120686069506268,0.09913975372160384,0.09806363241084455,0.13110334002764573,0.14788519657141463,0.20009603497088665,0.27348759255920163,0.5474838184870511,-0.011181767083524606,-0.06041691065058342,0.30623985238810386,0.26540299050275384,0.27710838417465444,0.20999571344244605,0.17664325479863074,0.0792386110111372,0.06921675078398416,0.10963848881054454,0.07146966361628125,0.12039010134036697,0.1756911331259298,0.19426104505590522,0.189585662891028,0.16038026403912428,0.158272779944432,0.1807081393115717,0.25348306209649457,0.5254520117747419,-0.019112098577355564,0.0647065337001228,0.28547084130395045,0.22816860484104118,0.27922904136200666,0.2186194719247418,0.25658462890705813,0.1100138756427607,0.08624759168812236,0.058402520785957486,0.11267476514172214,0.19458273226746925,0.1776481445152403,0.17569617467212933,0.11681174632742088,0.09142185326492637,0.07809243240438869,0.08106533193342949,0.08922970804679745,0.09054993833447404,0.10567544766016765,0.08595662358833932,0.10062044449958196,0.11448719118479203,0.12274871163755349,0.18312909017474652,0.2680629473324326,0.5698789533276063,-0.063306206941651,0.028851549969648338,0.2709561716063126,0.19116583403951487,0.18640344921048252,0.09568093810047848,0.07096464053127687,0.001591972933710594,-0.010400903892222533,0.004765706355641615,0.01155664821376763,0.0758757776732606,0.13567790969961685,0.15532533651028899,0.13054441132735375,0.09937562713740379,0.10458357670379827,0.10012471522035674,0.16399269301981653,0.1608099091915547,0.3391535217525253,0.48364203723659654,-0.07538417198455366
