0.031003526093913596,-0.006684772826714069,0.028634457100933042,0.1369616959121077,0.15531082833113133,0.007151522010982851,-0.07504551207609049,-0.09576436213997996,0.6036711413804094,0.31624114109480017,0.13643252504009012,0.1968223442011674,0.40327889644926596,0.7071391933908547,0.7920433893973312,0.27950753003176887,0.0552293844238501,-0.004393884364726564,0.05324438584434522,0.039539044013984254,0.12003598146262995,0.17945747624196387,-0.012109665809972818,-0.06305359586264105,-0.10082033022236023,0.6238827295662437,0.20902608265423045,0.15447900961724056,0.2313006003224139,0.4058767474984964,0.6852587481215543,0.8718822294760308,0.46141903666011125,0.07859408216386735,0.05513860850023608,0.0804439308479114,0.09590568168723039,0.09959610901736439,0.09855283722285306,0.20035866259376167,0.23529477362196777,0.038444494102198024,-0.0069119813702778424,0.01403937810477874,-0.08026969100276693,0.34160348343779895,0.2754809132687999,0.3636982989746899,0.5598201040066807,0.8721647362234706,0.8264926307629437,0.25884251836661065,0.0593774854138842,0.0900677762928968,0.0908836562560791,0.09766818535718498,0.08926674235569186,0.09960018971080972,0.1792398188157662,0.10914032738408964,0.003913440563146135,-0.032076354672273245,0.007871621458952639,-0.48754254375176764,0.2655455630543491,0.20501469408807968,0.33730646017792915,0.5699036794141448,0.8288596134621578,0.7472333115854205,0.18286649486303758,0.08775177877648543,0.051070765645485364,0.08788277491628367,0.07619735886400092,0.10376061689446152,0.19779874001353442,0.23824119613360356,0.04513735503797391,-0.019990949357086365,0.009880230991177458,-0.2040229852093319,0.3181467088911847,0.22289200087709993,0.3527082680903813,0.5929846546637855,0.8953918331201487,0.8062127401201552,0.2928008541530205,0.13103370054387245,0.12495260143345978,0.12727001303700353,0.1331908340018353,0.11742594168098336,0.12064863026526676,0.17808805144151998,0.28558702946354986,0.07010656913789341,0.040462218243540876,-0.0015526065682928383,0.2754812262095248,0.3438618735979579,0.488897121069141,0.7390853046965388,0.9769069483369816,0.7079527229211322,0.2159166244668327,0.13383728071082307,0.16262343395721773,0.1773769293555872,0.19152914731680626,0.1659962824455623,0.14590857545959918,0.2871877994535587,0.2065228066183801,0.10242102015604512,0.012323633352941482,0.12032711340229492,-0.5073222410304461,0.3381537647135026,0.31444901746082987,0.40014470174662214,0.6186365659507191,0.9507305421399531,0.8805850934278787,0.2452244012942287,0.12568075227240008,0.1610834504227759,0.1830068643998685,0.17512389882837964,0.18098565243499037,0.289291837035352,0.230427232121388,0.11646446532391727,0.04090288203300083,0.19394440552386658,-0.16153491419322621,0.27963389657508797,0.31315612901951634,0.4228782609905344,0.6879008518979284,1.0,0.7767186280633971,0.26429591256068685,0.16558537967395184,0.14083827503830815,0.16122809107180625,0.2072136810547986,0.17984122546689937,0.14442315741903672,0.2741814909173201,0.26714715444408976,0.11241981361742506,0.029328169809874242,0.14722159402092377,-0.3786268925480599,0.28912674984925846,0.32723164474708705,0.45969917685922035,0.7035173141452292,0.9994619508068273,0.8374509946740256,0.30810970246202196,0.15240390649021857,0.17756804698206932,0.15689363332733297,0.16947101554990854,0.15734024738838734,0.13362696425500908,0.23537695194866104,0.25829238514685293,0.041622704651463366,0.0051552301916522325,-0.01282272442578509,-0.32740404911590726,0.29965412135211067,0.23915290901814582,0.370090129412764,0.5993074539829198,0.9255447268369821,0.8396870998842444,0.2495273972809119,0.07855763607540973,0.047563056732350034,0.07457733702269255,0.09204332819247044,0.07403069676923951,0.04392085658741386,0.1326851222892772,0.2202506233390936,-0.00622207636035822,-0.06609526582719927,-0.048382702621071055,0.5877595126608643,0.4369487243012859,0.14057615914824514,0.20714406630444426,0.3917018861313882,0.6881740415337027,0.8231083652060113,0.07027352534983629,0.09155383897431243,0.14886576920132616,0.1746432600468008,0.004296141850326248,-0.0307626707713805,-0.04421098895133658,0.767035065770611,0.29856458285246684,0.181202431909184,0.2830206753391689,0.41349219695294015,0.7295153821017456,0.9140770218269149,0.47756753326032,0.0892096399499115,0.05286504913674376,0.058554101090254385,0.06655338571397386,0.0803674340101216,0.08909103292474688,0.07573459391217949,0.22439942274405428,0.1319228841929013,-0.03232483706987351,-0.05382472728012294,0.15546268797908497,-0.3663837728083949,0.1763550431636597,0.2851214652810116,0.3822915705923683,0.6577681750703173,0.9437785741169343,0.7113508646415484,0.1872019944997909,0.07643780959894428,0.08318944893938113,0.10691524458821228,0.12360309706789892,0.10251598039103627,0.07855912420589659,0.18398082406998623,0.22953900642402578,0.031114024041414133,-0.0014269637389261846,-0.04163800579449202,0.7619164409367039,0.2840117118961705,0.1791680187006435,0.21587231970869983,0.40661004193768996,0.7030257964881934,0.8755237883040516,0.43001195775684004,0.07253772343110397,0.023709297972578272,0.0395110695453228,0.05332317119484361,0.06801092174180512,0.04929511317797705,0.16943109258877886,0.09154142836144138,0.022783170185384307,-0.05639516090925223,0.06980855991896177,-0.3754465182142736,0.17204742556856473,0.19868362816507792,0.2987912332935679,0.5351512192489131,0.8229266569398633,0.6481976942382668,0.1291332062748612,-0.00033899704437219923,-0.006945313236746803,0.01261894559951227,0.018015935768737838,-0.014121165112495771,0.0814439138143073,0.07385007903174541,-0.046179445481539426,-0.10988552328826386,-0.09484020777581074,0.7924584953420108,0.3970358312376392,0.3023547895193835,0.4162219462388951,0.5206001737488162,0.8089190078871595,0.963871803570929,0.578809521127721,0.25413604608018714,0.18198571670605082,0.21731137643297804,0.20385763886851554,0.20022836384361653,0.14366712793186068,0.26120577804908485,0.30884779818597263,0.11944555984719409,0.3734434832520454,0.2190846576295987,0.33809187531565926,0.5383360908115404,0.8796911611513398,0.9724546194637996,0.41635269880914144,0.11147608655219186,0.09655080233170722,0.1150694815469558,0.12794628274248784,0.1249136116939708,0.09954574412352932,0.20295922794927426,0.2564546994050341,0.051552329931419505,-0.01823580855148818,-0.018898017443165396,-0.4224460549620837,0.32027020616552354,0.22589379572781734,0.36041778012186493,0.6188292721636145,0.9166069675259823,0.8397312629205351,0.3180825881296393,0.08846420648050662,0.0,0.0,0.0,0.0,0.0,0.0,0.0,0.0,0.0,0.0,0.0,0.0,0.0,0.0,0.0,0.0,0.0,0.0,0.0,0.0,0.0,0.0,0.0,0.0,0.0,0.0,0.0,0.0,0.0,0.0,0.0,0.0,0.0,0.0,0.0,0.0,0.0,0.0,0.0,0.0,0.0,0.0,0.0,0.0,0.0,0.0,0.0,0.0,0.0,0.0,0.0,0.0,0.0
0.045817508026714714,0.0834599284455512,0.06146947175789697,0.05075999192401702,0.1921925199913021,0.10830730339537821,-0.0365051210067365,-0.09526104434444299,0.27404158619399577,-0.14702747305962155,0.1317117386483758,0.20483239249410085,0.33731859546475135,0.6410425773631794,0.9193968048896495,0.6956582631601962,0.21352619610821374,0.11510692587441386,0.10643430238402206,0.1149882442941531,0.13368288159353747,0.21055167641689648,0.2704940627922226,0.08658692351896134,0.015983400878521792,0.0054991181184105824,0.5167244233645165,0.34379186317089117,0.23678225550487592,0.3423567691469772,0.4468007917462019,0.7844487059083173,0.8343932315363828,0.36357156997426837,0.11141242127085968,0.08498928221451255,0.11666755076524242,0.1467956436510401,0.1437648557618098,0.2648561898454621,0.24025123455235198,0.08185422381267411,-0.005028626933335896,0.07402399703205885,-0.42561358641929925,0.19508178470612692,0.26157752098823794,0.3792412437638947,0.6518803458462477,0.9550845681785549,0.7856924927204919,0.20849860606459236,0.09446239983545224,0.09706928765775906,0.11736028478410993,0.1630700102801149,0.1345937299756362,0.2839973483462219,0.2067422914098305,0.002748533577588579,-0.016288499321308936,0.32626671550192177,-0.2573331839280712,0.18756716814262664,0.3110318679354418,0.44379773206762707,0.7241638551453636,1.0,0.7098022384574009,0.1807492671500636,0.04075818290079437,0.06451480415213415,0.0,0.0,0.0,0.0,0.0,0.0,0.0,0.0,0.0,0.0,0.0,0.0,0.0,0.0,0.0,0.0,0.0,0.0,0.0,0.0,0.0,0.0,0.0,0.0,0.0,0.0,0.0,0.0,0.0,0.0,0.0,0.0,0.0,0.0,0.0,0.0,0.0,0.0,0.0,0.0,0.0,0.0,0.0,0.0,0.0,0.0,0.0,0.0,0.0,0.0,0.0,0.0,0.0,0.0,0.0,0.0,0.0,0.0,0.0,0.0,0.0,0.0,0.0,0.0,0.0,0.0,0.0,0.0,0.0,0.0,0.0,0.0,0.0,0.0,0.0,0.0,0.0,0.0,0.0,0.0,0.0,0.0,0.0,0.0,0.0,0.0,0.0,0.0,0.0,0.0,0.0,0.0,0.0,0.0,0.0,0.0,0.0,0.0,0.0,0.0,0.0,0.0,0.0,0.0,0.0,0.0,0.0,0.0,0.0,0.0,0.0,0.0,0.0,0.0,0.0,0.0,0.0,0.0,0.0,0.0,0.0,0.0,0.0,0.0,0.0,0.0,0.0,0.0,0.0,0.0,0.0,0.0,0.0,0.0,0.0,0.0,0.0,0.0,0.0,0.0,0.0,0.0,0.0,0.0,0.0,0.0,0.0,0.0,0.0,0.0,0.0,0.0,0.0,0.0,0.0,0.0,0.0,0.0,0.0,0.0,0.0,0.0,0.0,0.0,0.0,0.0,0.0,0.0,0.0,0.0,0.0,0.0,0.0,0.0,0.0,0.0,0.0,0.0,0.0,0.0,0.0,0.0,0.0,0.0,0.0,0.0,0.0,0.0,0.0,0.0,0.0,0.0,0.0,0.0,0.0,0.0,0.0,0.0,0.0,0.0,0.0,0.0,0.0,0.0,0.0,0.0,0.0,0.0,0.0,0.0,0.0,0.0,0.0,0.0,0.0,0.0,0.0,0.0,0.0,0.0,0.0,0.0,0.0,0.0,0.0,0.0,0.0,0.0,0.0,0.0,0.0,0.0,0.0,0.0,0.0,0.0,0.0,0.0,0.0,0.0,0.0,0.0,0.0,0.0,0.0,0.0,0.0,0.0,0.0,0.0,0.0,0.0,0.0,0.0,0.0,0.0,0.0,0.0,0.0,0.0,0.0,0.0,0.0,0.0,0.0,0.0,0.0,0.0,0.0,0.0,0.0,0.0,0.0,0.0,0.0,0.0,0.0,0.0,0.0,0.0,0.0,0.0,0.0,0.0,0.0,0.0,0.0,0.0,0.0,0.0,0.0,0.0,0.0,0.0,0.0,0.0,0.0,0.0,0.0,0.0,0.0,0.0,0.0,0.0,0.0,0.0,0.0,0.0
-0.425131755664683,0.455580832939008,0.595389628739643,0.8407883187086393,1.0,0.5416564644342549,0.25844909411569383,0.2287218944034485,0.2172388886139115,0.220474259755474,0.30228653468279965,0.31787474485842654,0.12598301189382982,0.051140875680463535,0.04991733215491306,0.8576557187348873,0.3951752185090863,0.24604350918060905,0.3100771919436395,0.46137877631270857,0.7233020379554337,0.8017776041361854,0.3554444645278777,0.06938320751664115,0.03875458127416824,0.04986909936835881,0.03385664615828323,0.05691326687099244,0.752395540297135,0.8322883540950345,0.33825287672992943,0.12204902637899424,0.06750834844287938,0.09540554454825022,0.07449815559163464,0.11441660282620086,0.20657088231153517,0.06780434561994665,-0.06073475478975018,-0.07326046582558363,0.41383605925997735,-0.016025225588505065,0.07115458521259896,0.12593898540547632,0.28634071943121403,0.5118596224550436,0.6786489607824406,0.3616938571591478,-0.0027908749668990687,-0.08026147594168064,-0.06284425577367088,-0.053992860104421246,0.0,0.0,0.0,0.0,0.0,0.0,0.0,0.0,0.0,0.0,0.0,0.0,0.0,0.0,0.0,0.0,0.0,0.0,0.0,0.0,0.0,0.0,0.0,0.0,0.0,0.0,0.0,0.0,0.0,0.0,0.0,0.0,0.0,0.0,0.0,0.0,0.0,0.0,0.0,0.0,0.0,0.0,0.0,0.0,0.0,0.0,0.0,0.0,0.0,0.0,0.0,0.0,0.0,0.0,0.0,0.0,0.0,0.0,0.0,0.0,0.0,0.0,0.0,0.0,0.0,0.0,0.0,0.0,0.0,0.0,0.0,0.0,0.0,0.0,0.0,0.0,0.0,0.0,0.0,0.0,0.0,0.0,0.0,0.0,0.0,0.0,0.0,0.0,0.0,0.0,0.0,0.0,0.0,0.0,0.0,0.0,0.0,0.0,0.0,0.0,0.0,0.0,0.0,0.0,0.0,0.0,0.0,0.0,0.0,0.0,0.0,0.0,0.0,0.0,0.0,0.0,0.0,0.0,0.0,0.0,0.0,0.0,0.0,0.0,0.0,0.0,0.0,0.0,0.0,0.0,0.0,0.0,0.0,0.0,0.0,0.0,0.0,0.0,0.0,0.0,0.0,0.0,0.0,0.0,0.0,0.0,0.0,0.0,0.0,0.0,0.0,0.0,0.0,0.0,0.0,0.0,0.0,0.0,0.0,0.0,0.0,0.0,0.0,0.0,0.0,0.0,0.0,0.0,0.0,0.0,0.0,0.0,0.0,0.0,0.0,0.0,0.0,0.0,0.0,0.0,0.0,0.0,0.0,0.0,0.0,0.0,0.0,0.0,0.0,0.0,0.0,0.0,0.0,0.0,0.0,0.0,0.0,0.0,0.0,0.0,0.0,0.0,0.0,0.0,0.0,0.0,0.0,0.0,0.0,0.0,0.0,0.0,0.0,0.0,0.0,0.0,0.0,0.0,0.0,0.0,0.0,0.0,0.0,0.0,0.0,0.0,0.0,0.0,0.0,0.0,0.0,0.0,0.0,0.0,0.0,0.0,0.0,0.0,0.0,0.0,0.0,0.0,0.0,0.0,0.0,0.0,0.0,0.0,0.0,0.0,0.0,0.0,0.0,0.0,0.0,0.0,0.0,0.0,0.0,0.0,0.0,0.0,0.0,0.0,0.0,0.0,0.0,0.0,0.0,0.0,0.0,0.0,0.0,0.0,0.0,0.0,0.0,0.0,0.0,0.0,0.0,0.0,0.0,0.0,0.0,0.0,0.0,0.0,0.0,0.0,0.0,0.0,0.0,0.0,0.0,0.0,0.0,0.0,0.0,0.0,0.0,0.0,0.0,0.0,0.0,0.0,0.0,0.0,0.0,0.0,0.0,0.0,0.0,0.0,0.0,0.0,0.0,0.0,0.0,0.0,0.0,0.0,0.0,0.0,0.0,0.0,0.0,0.0
0.12544588376959828,0.18508053319306686,0.25649166105618443,0.09421803868316041,-0.01196438479717578,-0.01742988355599504,0.4773111940821785,-0.011347056041354336,0.14493228641870526,0.26834397552758454,0.3901877714839773,0.6362888619506079,0.9015772277782417,0.5612373997795072,0.12353093575220894,0.04093029729705607,0.08283519957145502,0.09240702542825098,0.08791370940998777,0.028117348013572182,0.14885150521845353,0.07385003347355576,-0.03233686976527126,-0.04730901763240325,0.013110819048259122,-0.38787760011835404,0.13569288126528548,0.18578047263384687,0.24527044979588045,0.4806149257683044,0.7384233911596441,0.5637470436162563,0.10846425444409373,-0.014382759703624378,-0.01924895964264064,0.03251443386739896,0.02997021537659759,0.10795061674182349,0.18465096043056173,-0.010167661542409136,-0.05282561745666457,-0.023268538922414726,0.5049785046404323,0.3548467403686559,0.14682310416371452,0.2016964108084372,0.40543160272487494,0.6780842355272365,0.7646008718071734,0.15082835902313765,0.24258786947518374,0.28367115959988903,0.053107233158900986,-0.02202558882580562,-0.011767079623539393,0.007646603258033505,0.3529638409216814,0.16911096219215535,0.2928867375473261,0.4893724760511409,0.7753061750463749,0.7019177872642782,0.18769313147215028,0.017041707336820776,0.007409715886957863,0.030789867620009084,0.047193204667358435,0.09628104039284699,0.14271288451513292,-0.041934782853724636,-0.08824312055785377,-0.10717124539057503,0.5140022599143518,0.34158192202276877,0.1259029514818686,0.21904672502482425,0.40066466960122,0.6936973261376314,0.7736586150089979,0.2754589659301575,0.03991857603996465,0.015895472689462845,0.02238939744778989,0.016626042099702684,0.09436694000793767,0.19579177704356604,-0.020331073472683883,-0.08974217420315983,-0.09519572229051614,0.35660561871332713,0.27732777960153737,0.14457464006896398,0.25402340297372666,0.43150601688327245,0.731576949290387,0.7342951212395561,0.22953423109607307,0.04107021393494814,0.033773516655264325,0.038112835299101595,0.05625450073923673,0.1721845452993187,0.19436643214857527,0.018351360715981847,-0.03106593215662552,-0.0685627971288526,0.74203268724015,0.21452173264603097,0.1898521316790776,0.28650679508849963,0.4483877094220309,0.7294183895472462,0.880414599339693,0.46685400321747145,0.11507914521755633,0.07766209204059511,0.04838166339114615,0.06348212655908039,0.042056297905096005,0.139358637422325,0.09844469641568178,-0.07388548838842487,-0.08260320743488452,-0.10158749196612622,0.5857016474071274,0.10794984208711218,0.12263256193588666,0.16114724001846473,0.36915973401581376,0.6053456261538264,0.7367465963627412,0.3446515234594189,-0.0009973689611343518,-0.05382006261955196,-0.04719853857291292,0.02165229606946854,0.07835098354589831,0.10926102917735228,-0.028492691994086182,-0.10029862216273047,-0.14086630793194524,0.5592313564306063,0.2960579683545141,0.15560867728223615,0.21755446535249268,0.38924788529722065,0.6626496085914715,0.7647334829234307,0.2826943938760088,-0.008028619421424132,-0.03149602326985912,0.5581761376296235,0.33008147387646375,0.2201991207835189,0.3041580017677745,0.48371866872145686,0.7781012856016702,0.7909157371983645,0.2996352883277305,0.06604734407132742,0.06690074135922282,0.18441721770240704,0.2924502326071338,0.21340496715072454,0.08301813571615062,-0.01535174218195531,0.35279714111015886,-0.006061845130927868,0.22461603100258315,0.3149490054270467,0.4068699343020723,0.7173116667231244,0.9375741960095114,0.5547141227185917,0.09340835372471924,0.0978562238349077,-0.013076838220009258,0.11947309367792082,0.08049137597266111,-0.12075150434787922,-0.04605087734199807,-0.10142312382713238,0.4547677052522405,0.03230027172858881,0.08626255047703792,0.12294129052126818,0.24832542718087577,0.551357470231952,0.620451696901308,0.23865179499643738,-0.004889759287660393,-0.06927694427993324,-0.016507986467447753,0.12179800464463161,0.09707680443535772,-0.04976756032000501,-0.08567877152792941,-0.14702499257669796,0.4114616604336002,0.2224176647496194,0.1130481045366547,0.1741779237396852,0.37049250087535457,0.5891953852231814,0.6096347795829014,0.20216814960811808,0.03499925810684552,0.012368607743966163,0.054012717858301806,0.14599174629128125,0.22818692964509116,-0.02481602681662326,-0.047091613937797795,-0.061158197181949855,0.4006707086479631,0.22547584849203092,0.13849421976773557,0.22155981439974873,0.36559285047255197,0.6394087186386461,0.6243107916653756,0.19788642999756603,0.01903785649888247,0.01803537230428143,0.03248195717511523,0.08469510539686365,0.16383029867239302,0.0879646391993193,-0.023889547755277157,-0.08991123675285607,0.261501651369915,-0.012222714410563988,0.07479401690508121,0.16739093039747227,0.29130312841237505,0.5348694906847123,0.7533647177256977,0.4267430734655535,0.02702124569084393,0.012887063637780269,0.041875112125980184,0.0650177817590018,0.12694425145002913,0.16566957633858492,-0.018707929014988675,-0.08155460313255032,-0.13816197603358682,0.5255423480993437,0.12968680318792494,0.5031503114257335,0.12081542163597725,0.11391934286939329,0.12885359433350976,0.15447496153418827,0.22984724671968437,0.2976471675789286,0.04672267302060321,-0.047803010974857715,-0.030239236800855527,-0.01834276407747269,0.29038923837779695,0.2817066451434111,0.4136943423791335,0.6631240944580105,0.9426113637720589,0.8976139527104847,0.3397041253025304,0.1503067303671851,0.19026573485246742,0.1292013489729351,0.21009192338481592,0.240782100659265,0.0179582149068595,-0.08647596890266698,-0.09576966316104422,0.5352364453925242,0.32976767910576277,0.1729762184029582,0.27499848574908925,0.5670385886768563,0.925442741216886,1.0,0.3819191899329804,0.06016062450831304,0.0650882909513713,0.013627481943060741,0.12705463983269208,0.14595427324787877,-0.06635990643520524,-0.12621280134947746,-0.12782556052232807,0.2539196038086828,0.3446482601535157,0.1679331802166079,0.319154885063904,0.5008024921020132,0.8055576292004051,0.7951998936208216,0.27665460704850603,0.13723759836448446,0.19626578331696398,0.20890115795751024,0.3270072437461643,0.4219654484210574,0.21236309482486926,0.1302300604338779,0.10737809381906019,0.026340402893013037,0.42885765229655154,0.40560698704038955,0.5101039014449797,0.7600035538650274,0.9966118909387763,0.8913927985891507,0.31632589988308135,0.1714037162754886,0.14667454204207933,0.18291419565186182,0.2636672512105792,0.30553382024030773,0.050625577730124105,0.017721797472505095,0.0028591206700044718,-0.37055347528067945,0.32464968304545405,0.0,0.0,0.0,0.0,0.0,0.0,0.0,0.0,0.0,0.0,0.0,0.0,0.0,0.0,0.0,0.0,0.0,0.0,0.0,0.0,0.0,0.0,0.0,0.0,0.0,0.0,0.0,0.0,0.0,0.0,0.0,0.0,0.0,0.0,0.0,0.0,0.0,0.0,0.0,0.0,0.0,0.0,0.0,0.0,0.0,0.0,0.0,0.0,0.0,0.0,0.0,0.0,0.0,0.0,0.0
0.10072043989512601,0.19573357307523773,0.46446941940052905,0.7017703230276298,0.5590634402440604,0.0018213353521151074,-0.03792280023977801,-0.011185884604643016,-0.010589395046041367,0.06236985735322798,0.12994698815365258,-0.032945184058290646,-0.09205624975567436,-0.1009929047483874,-0.11812417330762906,0.20822221037017358,0.0911270031166874,0.21344130370151188,0.4514236309745361,0.7147289532070789,0.6289907645130097,0.14006223303295176,0.04136061067383996,0.044952603912997165,0.6605159919031247,0.24232557520315132,0.16782973515968838,0.27005098598140204,0.41821503335977067,0.6648115970861816,0.7502439488138662,0.3009675676406225,0.06239131419738375,0.06201626246792565,0.10647052249580076,0.0871386171145693,0.11768044579273618,0.21100161962185435,0.13780500288506697,0.003328873943766898,-0.03105889781826321,0.4713285639739173,0.1131241857314966,0.15388534328129752,0.2433524150616432,0.39386661919317284,0.6096290664282589,0.7317804346487132,0.35167860737902207,0.034818819468513514,0.017490454894184947,0.017058284498537322,-0.008314106923202853,-0.02889711280626229,0.03780212649941359,0.09803013651915726,-0.03682691951284326,-0.07799533670704371,-0.12259358694428328,0.5677664859594206,0.2280741944532764,0.11172182171745434,0.2274115505050621,0.3918794471978233,0.6503106809146775,0.7585368677319495,0.31437963383830264,0.08064077512899481,0.04720655934522486,0.05465630609812006,0.060600732866677026,0.04959281827163524,0.10300997101338631,0.17341035911719072,-0.009766227629749677,-0.07017938894182453,-0.07828482592258684,-0.021178106762731203,0.2765497981421475,0.16687872201774304,0.2790316378253791,0.5038368501071185,0.8031260725063367,0.7539554297563749,0.17024681276197945,-0.00389846858929119,0.019616926774379848,0.03927481208704175,0.016054063237201287,0.09504067829562157,0.14123047762554308,-0.01911108684643059,-0.05791456571849833,-0.09727354001918168,0.183030517881955,0.2966332523170388,0.19245971423490385,0.2774565566082188,0.5002657335221237,0.7663074961434453,0.750304143314488,0.24400577623996567,0.04781987706164509,-0.005252668729365789,0.01685872954287464,-0.029831367906594828,0.067680095946621,0.0730761203250244,-0.09616366661808608,-0.1288060875746874,-0.14917980285892815,0.17586054618140753,0.20926259965503097,0.07930948681916485,0.16434368823015463,0.3616707878893015,0.576734438687593,0.5985061540637078,0.08039993746982482,-0.0814487999164213,-0.10284589666134364,-0.02811144815074663,-0.01914871610948516,0.061596752379612055,0.29386704091223464,0.4032218580022593,0.6748383349041793,0.8491472189007098,0.47348771972059867,0.12294022902876264,0.06386623079021997,0.08187074566001924,0.06948665845295991,0.18109420105431046,0.15879635096568592,0.0012105600352487278,-0.02193726123823791,-0.05853049196337229,0.4942920684272339,0.2978507940483362,0.15118530317066245,0.2656496927124543,0.4560368751291495,0.7580110866157135,0.7522983633966858,0.26013920164650434,0.08757609948486945,0.09597764113344025,0.07963628827649302,0.11349542294902618,0.13582079708878936,0.21622245046924413,0.10408649608718704,-0.00019523398871089056,-0.043292761845521145,0.5568711470242046,0.18656128447623438,0.2058218949368993,0.2784392269864034,0.47149456223804187,0.7622593420336059,0.870084013424171,0.4326456546947248,0.15886338842005496,0.14723737842901044,0.17183397555783916,0.16977725799469273,0.1674375900338435,0.23805327092278805,0.3235169074103944,0.14372465839038573,0.1140252349630936,0.2635903028778034,-0.05225305421334989,0.31209621151053524,0.420091373541635,0.5186910996975495,0.8009668884935641,1.0,0.7029289613304438,0.2459458868340475,0.22849038963869875,0.24414623468848917,0.17809284932431646,0.042643524464160726,0.16387892602943793,0.18617725554566,0.34188057864277677,0.19145057789463893,0.026163472693922787,-0.12399192844154713,0.31824328265608554,0.5614029144234112,0.21142156681952481,0.2884334385911021,0.3259612043155109,0.5939553706284157,0.6469843951519502,0.015197093911757564,-0.025328591105842586,-0.061198137280533554,-0.021448385018472852,-0.029601781267821994,-0.004022561806080494,0.07153607350228751,0.10891898604723806,-0.015672048292092886,-0.11731925796771504,-0.09838596806272906,-0.37650032916887965,0.1597076832872147,0.1395628777022784,0.22851517266390126,0.4838422046293648,0.7938683245364359,0.6340772543623111,0.12179849908807912,-0.011015040168403992,-0.055385425149689214,0.06503901174269479,0.004796145164661181,0.06307979092402412,0.14280396371359397,-0.03217323052583,0.28413799979566734,0.4796583769711236,0.7525477950924269,0.5802509541479555,0.14267924618506936,0.05671539216697385,0.04452473570044433,0.0954524698439498,0.06946326952267978,0.11643422884620448,0.18782155464020062,0.11608467785910202,-0.015976860637957904,-0.04613975414779767,0.4808208836833686,-0.15519468076224438,0.14986739444103547,0.23132883613708324,0.3583586256512811,0.6227529027139914,0.8047829609989878,0.4896642572499805,0.1309436566345366,0.017703855459725307,0.046676237782476176,0.09747236372672748,0.09994016067818508,0.14951139480148143,0.19231078763523804,0.018700786029584887,-0.05108728106874583,-0.035287766904943514,0.7191879779371587,0.3008394598330505,0.1772054480885279,0.2612951018913178,0.42037051616283283,0.6858735484898775,0.7754756891402219,0.3195624135405814,0.059333561882712875,0.005451781726867178,0.02151809024186642,0.04803196100257168,0.08891997644840827,0.15119564426197676,0.03615455115231922,-0.02747638958578043,-0.06103084304057698,0.5276640968776327,0.03337477183604641,0.1113847516361036,0.19309574371944263,0.33463891553316444,0.5988801026529091,0.7026402909674345,0.3529146729565534,0.038589728963641316,-0.016946049866672933,0.014538463126946264,0.02807103773699087,0.030659279760282727,0.1042445785017612,0.12982176740072424,-0.01778917213133534,-0.03774008222968951,0.08932553050212536,-0.18470938651378155,0.15779182944701603,0.22324735287730801,0.3425566285504048,0.5317271139356452,0.6667195050009644,0.5117925817837087,0.13065683477870166,0.054866079715333325,0.06691489180435671,0.08653610664172388,0.08229556889238598,0.103866945208806,0.16836792833942174,0.07513020511255838,-0.014755724576351497,-0.08192869360167271,0.35997779695104626,-0.032509100330872405,0.07904074792853712,0.15101227347071045,0.29679494079225976,0.5396883598513764,0.6972731802584886,0.39291658421643144,0.04310312463618931,-0.02493175543121716,-0.019997002903952045,-0.0024346054574107033,-0.006764722230998861,0.032685268808755205,0.1347198485023279,0.0,0.0,0.0,0.0,0.0,0.0,0.0,0.0,0.0,0.0,0.0,0.0,0.0,0.0,0.0,0.0,0.0,0.0,0.0,0.0,0.0,0.0,0.0,0.0,0.0,0.0,0.0,0.0,0.0,0.0,0.0,0.0,0.0,0.0,0.0,0.0,0.0,0.0,0.0,0.0,0.0,0.0,0.0,0.0,0.0,0.0,0.0,0.0,0.0,0.0,0.0,0.0,0.0,0.0,0.0,0.0,0.0
-0.03621382102754286,0.6041803177780577,0.2695110973389058,0.08695615735617715,0.21612550426079094,0.4179013938220642,0.6955816085807959,0.7713425827448889,0.31035336740872727,0.01975053998978148,0.006327998165528075,0.03125586298773183,0.0447171727058295,-0.007905519567982815,0.04618569540489015,0.0938698902012382,-0.06407999244580477,-0.08565440025877316,-0.14607312795784694,0.4900145474141103,0.014398971407036073,0.06430407830525238,0.18041010107209157,0.35462786393082396,0.6175699404848608,0.7781319420051827,0.3355851804860919,0.07058486215796274,0.04523528919005569,0.01861965158094273,0.04774132298811001,0.037193142686027886,0.12348359926230093,0.16980227090857572,0.026737255143433378,-0.03479540377732656,0.05720657760690397,-0.25529437447034264,0.24548553760206276,0.23378011004471122,0.3393558807345425,0.6126385294339511,0.8418340751836193,0.680736265769323,0.19716300392759425,0.1069731847271868,0.10955508145236417,0.14041260829227228,0.12844867947909458,0.2074795453663182,0.25720340507166867,0.10001349455756474,0.02873399198673217,0.034067877869961634,-0.05289294552549962,0.3216927676175823,0.2808732673015196,0.3976945311465667,0.6178581546004747,0.8765630252585662,0.7597810169082521,0.2843091356493686,0.16118814996408434,0.1533924570647335,0.18650678833366166,0.19811593034013744,0.19120821782893002,0.28577901091285546,0.27060002236855946,0.08835208013179663,0.050739940201091745,0.1745477125172359,-0.33529636501713517,0.2838102931416446,0.36616725844547215,0.4914265072616729,0.7268030793843469,1.0,0.769484514276851,0.2758724509060844,0.18430487465726195,0.15485261600890135,0.22171121439304906,0.20576082129184614,0.1918985668975806,0.2722210458866552,0.30630796431912294,0.09013330976373214,0.03291155003303837,0.05602328193991735,-0.31967850146181037,0.3344896138066512,0.32042720041549955,0.4137016239264469,0.6479278184405981,0.9139088659854406,0.7901232125368148,0.2879743935297723,0.15031210372896037,0.11371566088590546,0.13737888204296314,0.0973893222875072,-0.22377256294631193,0.3136661798148342,0.26872295942319996,0.3920637612513427,0.593095594455495,0.8832304961343993,0.7035384653062837,0.21243422875862739,0.1101661155868587,0.12161457260504432,0.14207117030324765,0.1469323589404969,0.13529550216346733,0.09845669456193251,0.20832372758145304,0.1399698634409608,-0.0007031621321969051,-0.04478999697985267,0.1754146956404451,-0.15734697031002423,0.15400423966672644,0.20431848818330534,0.3434311440006666,0.5674523214640871,0.8361879307655127,0.6072066379244174,0.14782840248537749,0.06559345586743105,0.08178057468812905,0.06017797061147057,0.08358845060723481,0.053002065207322806,0.04732063535231307,0.12414425765902275,0.1775615903701588,-0.012947180509030634,-0.05736092998080553,-0.07899247046345532,0.365889681424367,0.29472680101025306,0.15695643703211612,0.26940557985408153,0.44276576094934894,0.7517452520284437,0.7742160740295474,0.27765947911091826,0.02472102500616934,0.02289314746206344,0.037851592331240025,0.029085268698067778,0.039188589765583204,0.02615002716438407,0.17537343629492194,0.051820036733979745,-0.055000191597979385,-0.11389522462443086,0.24535541244159517,-0.1395219739190067,0.1133719914600513,0.17269831361195617,0.3000923078764474,0.5363732985710915,0.7966504975482761,0.525598206577505,0.0961503373558939,0.019847669403263594,-0.0024250346347374522,0.06533984714319396,0.041635265576994526,0.12057957805263164,0.17376883854229214,-0.011207256918047047,-0.05241916423658123,-0.06567037323840562,0.26497018285987384,0.3079749009101225,0.2022676348413411,0.2661829898280223,0.45562973082455677,0.7325157029459315,0.7380245012424443,0.23694452631667126,0.02133086455164743,0.00267709247016173,0.03277258975253033,0.05161276548468485,0.03219512579775849,0.10832793554880164,0.1681024651309115,0.018003852688403838,-0.04374991661520093,-0.0519637622525687,0.6429084355573006,0.3397566948340652,0.1750622160458328,0.2676347826939541,0.4644646813092808,0.7463500272045183,0.8000664707347356,0.051068028223682005,0.0747520035493576,0.08715381087442611,0.04205903217526943,0.15727090092443785,0.14865805394299939,0.02400834045756267,-0.06788147335034284,-0.08322193513953302,0.6737275193816453,0.29573703660006967,0.1508977791186716,0.2584070213744815,0.38814420318424137,0.7168153431604087,0.7709799793056404,0.35381301606694354,0.06383999087731941,0.0687551569775515,0.0340180414992018,0.06821818562756242,0.06363014123328968,0.12104240392469595,0.17383168218993858,0.042866371664387386,-0.058559116921129965,0.05194729579967496,-0.41108305395832856,0.21414856689597536,0.24875107878168318,0.31949028663746304,0.564697290207178,0.797179291008324,0.6440279443252348,0.20786349717671534,0.07373602680828958,0.06494238527966371,0.10318579758736274,0.08946774581156604,0.19870796164081855,0.28420369584747746,0.03754012721573477,-0.025542525446116786,-0.06015018912561713,0.031830983060987056,0.32961925738068554,0.11827833527633062,0.32098249335116963,0.49431179466895087,0.7876853115131215,0.7207765023699477,0.21348230594975182,0.061756073913494004,0.08828341427685675,0.0788470981711295,0.06434624769108531,0.09608098834944039,0.21965073340831817,0.0876274903643032,-0.03897614861550629,-0.05125845023229515,0.36760026526773665,-0.0769858467867169,0.15858996902945516,0.2177773521152259,0.33249971778024456,0.5672679234790147,0.7975782153302802,0.4983965639100935,0.1011504771322801,0.040865217572617116,0.06311830963111081,0.03169517154272891,0.12330234347124854,0.18162339248736142,0.12114611982511651,-0.03083485320103273,-0.03821120562650607,0.36753053262602664,-0.03439456691965706,0.17420752004187343,0.1919820289515198,0.37085233267414514,0.6229107124263308,0.833845786437723,0.4816151258929263,0.09724427627026243,0.07374692026634111,0.08438694600510556,0.11624937205692873,0.1114157120025563,0.23338206681250254,0.18451238932783384,0.04189513706247982,-0.042677037155646094,0.08978880331397612,-0.2810705934918484,0.1969230565498696,0.24359440101747937,0.3584890274820621,0.07778530757914602,0.03963531427685251,0.05983439389916983,0.04508392236793596,0.04999510941370451,0.12587871325547356,0.1446329510197702,-0.013744034609157602,-0.03362498012561472,-0.09081498331778624,0.7777620742819293,0.17676086033429098,0.15383653358183724,0.2049685596596753,0.3874740910115851,0.6449614653829865,0.7992287383428183,0.38705121462906084,0.06277676540693725,0.06012251028347929,0.04396628514875339,0.050311050220034514,-0.002448511171051959,0.050998948457094816,0.0,0.0,0.0,0.0,0.0,0.0,0.0,0.0,0.0,0.0,0.0,0.0,0.0,0.0,0.0,0.0,0.0,0.0,0.0,0.0,0.0,0.0,0.0,0.0,0.0,0.0,0.0,0.0,0.0,0.0,0.0,0.0,0.0,0.0,0.0,0.0,0.0,0.0,0.0,0.0,0.0,0.0,0.0,0.0,0.0,0.0,0.0,0.0,0.0,0.0,0.0,0.0,0.0,0.0,0.0
0.1856366488644867,-0.01232001208742961,-0.05613070119980926,-0.07518092265474345,0.6559320747589762,0.06251533312166277,0.2021952808492673,0.2679766835840426,0.44017070315167817,0.7316878130537333,0.9088709956308406,0.5071879733944735,0.12264654660353258,0.015058288125462978,0.0661906290345487,0.0800399778182102,0.06845660299201614,0.12908253894961103,0.1803026755128129,-0.025154348137151887,-0.0841445759101459,-0.08734973995447988,0.521833901953079,0.3553959592051005,0.1753588135638488,0.25200748376719273,0.42038780581405216,0.7844295590984559,0.8346115587704661,0.27588911302225566,0.025114889973881727,-0.0031634204893661705,0.03759576063948052,0.06821777376343782,0.025918957507891152,0.012873417354369664,0.08208157058502248,0.1902891447662478,-0.03393101561630041,-0.09955162440987934,-0.10143989156095294,0.3300796223104888,0.28408697779981046,0.11352566583368612,0.25922241483573627,0.482641029845868,0.7907630641725709,0.8561177096812536,0.2905479406115144,0.03915851121918525,-0.00581942894367031,0.053076303520996355,0.03902498398712075,0.06013326343891464,-0.004620260442672301,0.10108874063530353,0.19764923065794657,-0.011729875740365549,-0.0670560977617321,-0.11515847836914436,0.5941218185323291,-0.12097526912349184,0.10128454159130548,0.154341775742751,0.3388372248077757,0.6656007865661318,0.9240052765702995,0.5442090805065356,0.08735781194042083,-0.029438825995699285,0.005152040872110605,0.0014198374766271032,0.027030461218602347,-0.038325715952514924,0.016004004574091235,0.11295833221941273,0.6863926577735728,0.10940607819788967,0.11424118387226118,0.20707743252484875,0.36525312680827976,0.6407377435016264,0.8253324457498443,0.4098651144590058,0.04997997010681811,0.016300682432747002,0.05074772911768266,0.09019199754369531,0.06731913764451515,0.15858964956051336,0.24437609928361975,0.017772238789196385,-0.04239871008228864,-0.03763135561178547,0.16040907725945838,0.3271273122721658,0.22676731455884142,0.3465273496964405,0.5190033472930298,0.8216110514158426,0.855024216701346,0.3329070499294968,0.07584767432525913,0.08068825479316154,0.06701540614396505,0.11641643075100139,0.12668776127007197,0.24149304129643842,0.17448820467938359,-0.024129582101473316,-0.056203740128798564,0.20763025881201672,-0.4086238869067818,0.14252018635357502,0.252306892634497,0.4233042155895986,0.6628558048677321,0.9643532478936196,0.7004122340117132,0.15004135288001225,0.05608138673307294,0.07083536223552474,0.046438997846640996,0.0808954508723016,0.15433060523006475,0.22768876501816723,0.006629456309156911,-0.06872429198343248,-0.12566352557996466,0.7303607613820855,-0.028360916891302407,0.13045235727498358,0.2529927645583117,0.3999616346572292,0.8210807965874681,0.9705744258195873,0.5436479044477803,0.05750231226795376,0.032125999980059654,0.0015946181845313918,0.09599508703287019,0.20512650396149243,0.11276789908521521,0.01840565884971544,-0.03331879144688787,-0.010319069667667323,0.7639818631057037,0.2194177171018651,0.1980806551637925,0.2811242931640607,0.4347197579874278,0.7760449331362608,0.9110100184854245,0.43819761219117187,0.06450894349709399,0.047654799009165284,0.04375423433024128,0.055582217519633145,0.1772856422234208,0.18076737842812682,0.009513741845367293,-0.07667483682404802,0.047733798156790366,-0.32627641507318245,0.18372383254195415,0.2274004830182377,0.3714898480458005,0.627170514675299,0.9163395600056393,0.6635753609584937,0.15311711673053405,0.04271050485024083,0.019532964946367685,0.056038112728139536,0.14909187122207568,0.2031414929788058,0.24051052628418815,0.37628864264444367,0.6833657252613256,0.854493755474889,0.5642863683837714,0.07429689208915562,-0.016684229359359853,-0.018008388688628186,0.03369604487724373,0.11121862625934589,0.13712893736655263,-0.008900079020254005,-0.060782669780513256,-0.10083213023011599,0.7016679649551466,0.1980839665468935,0.18063837819058567,0.3106985069169081,0.4637624231136042,0.8142042303700409,0.9236443484420384,0.48761860481711217,0.13316583310590765,0.04371415545851751,0.0933509822231581,0.07037133910250597,0.21400177990862412,0.1688520709872419,-0.041379316832619244,-0.12724829133261592,-0.17700160917967583,-0.05706980176924132,0.24581513296386467,0.08021170594652045,0.2276853714142072,0.42808898714100535,0.755375472072512,0.6540043048431171,0.16548886331567295,0.015235343442438057,-0.008787237537427424,0.02437700489820294,0.043243549560705204,0.2159180708344124,0.25155281324235196,0.09714551596160122,0.011125198233341379,0.17903192727189846,-0.16044684995374472,0.18646030870109007,0.22862984203420403,0.3399394436198659,0.5859718638400644,0.9154773581136333,0.6606156519094192,0.22141023690738368,0.1300570372515801,0.13860015657119643,0.12463255954293358,0.1282633852867131,0.1909961443298498,0.2169267407038515,0.04493412729713525,-0.01668815471266588,-0.0774476626366827,0.6075838059232319,0.22248052838958673,0.18630615288804236,0.24168849023367955,0.42559827405436296,0.7021165632354515,0.8557167377412082,0.4738256838937752,0.09002107676449031,0.04292773109239291,0.03400624150905871,0.03150969958631152,0.07657949316515548,0.18385195570189186,0.04990427571869896,-0.0937068597966689,-0.1064484090920288,0.48318403354907014,0.028056982734336742,0.17531421501301542,0.28605201450507045,0.4125855983640364,0.6675622686516774,0.8706784047295812,0.48520593542653384,0.11377425150674422,0.007820434621964918,0.041086217633888235,0.032908506059497085,0.03768058508811463,0.09305564052321155,0.18646686523426445,-0.0029468132319674482,-0.11005881969646593,-0.04071999432348065,0.5290546337737881,0.8410868659395395,1.0,0.4708081178468657,0.13060355519989567,0.13212536308980566,0.16671748539050857,0.1095137399913583,0.23984678795188413,0.2222048858869836,-0.01527093502775484,-0.13152236182037122,-0.12517080865919483,0.17292290199338192,0.28114487183438897,0.08964639094398968,0.2387356738783031,0.4794114483692336,0.8130727738484183,0.7500782239289485,0.17882583542332844,-0.024633949444648195,-0.06502362595233571,0.023474737072780874,0.05532833716396718,0.15225180859979126,-0.00834626163435155,-0.11224302645190834,-0.11061256287783607,0.5301423283426704,-0.007982742295475569,0.10910097014584089,0.21460645298508582,0.42224561014319506,0.715994777467531,0.8956888962922496,0.5100603053176229,0.15338529527068412,0.08374391512511552,0.10967844663694747,0.19387765286576314,0.23381375231571613,0.10149934319555708,0.02501821872541198,-0.039221527944324874,0.47201070934632083,0.03538613421244956,0.18540168840527038,0.2290965565531767,0.42594153917643385,0.7180450265618131,0.8194316670384222,0.4622574481251428,0.06710408064615575,0.09465705803645551,0.07304766793713624,0.123628165743773,0.2188347712286785,0.22612974460407112,-0.001673191077357987,-0.02586372386977545,0.05589320482902334,-0.25756706879634395,0.1479942244285856,0.22913247087383798,0.3516955816263242,0.6286875562374887,0.9425877830325721,0.6572832753755803,0.10234132501087113,0.04535423235375921,0.034688531636379374,0.056390076764476764,0.15160683373075043,0.18746091392890893,-0.006591182681335434,-0.11633328024851076,-0.12398492295818898,0.6857426818356015,0.08261907007096492,0.11137120978428974,0.17460593969069388,0.3075595792992546,0.7153081640284626,0.933328797737025,0.4269965305827227,-0.0008672096049939601,0.0,0.0,0.0,0.0,0.0,0.0,0.0,0.0,0.0,0.0,0.0,0.0,0.0,0.0,0.0,0.0,0.0
0.08717420211745144,0.1117690690300787,0.14365249726377408,0.13465272805115577,0.1703345371900144,0.0060387631239558655,-0.06192425055714166,-0.10929996017231164,0.5177056058080385,-0.026912321535280562,0.1846379682945465,0.25867500330521825,0.4097608744267721,0.09471758416391117,0.08143384202046854,0.1306486197259298,0.1491973386033933,0.2245551319286747,0.25119641786279784,0.07605755358212662,0.054085053273987736,0.09306091875291597,-0.24530202875209456,0.2451697157909297,0.27371605345450895,0.4165096793869198,0.6542425408600904,0.9108770896692683,0.7798323293854357,0.3178494002692537,0.2665143665513619,0.2594841300263368,0.25049631052382004,0.21959100292880104,0.22064776033006675,0.2606419254964897,0.27555924356596917,0.052435083412881243,-0.006885496381663255,0.21738980054772478,-0.1725534659020487,0.16604353146298112,0.2567872536642998,0.46477572776179454,0.6727642305205367,0.9013628356331551,0.6565116686290715,0.19618071068894707,0.157047601500707,0.1680059098200278,0.18088268606355426,0.18743516871455793,0.23266106263692338,0.3304996692229651,0.1038185815612656,0.06157226845629265,0.05416962896707952,0.7788105802518349,0.3175293412889737,0.25456093131411683,0.3987925962756902,0.5537227896529694,0.8397608923538794,0.9459950306569833,0.46516760393351925,0.07354155982203031,0.05155328130421739,0.010001780751160646,-0.0010728781811424712,-0.037796510511657236,0.03987426900502833,0.10292736602116132,-0.11709119859487792,-0.14832733423717653,-0.14323428178119493,0.48162061246689764,0.31693515974144226,0.15753413145939985,0.2110010710216213,0.4402619588442762,0.7312318804403934,0.8091488688672288,0.2629747448253624,0.1179166430231514,0.08652706288680842,0.2540475098182341,0.14510009864049467,0.28416594093393127,0.33023623445543887,0.2633335455032971,0.0032653341301973142,-0.0002838517104122643,0.6294805476887839,0.38308741087261183,0.12664172774243368,0.22584106988346503,0.33998347388999994,0.6110242264314625,0.6706871108183897,0.19664522884246308,-0.022018055815646174,-0.06234337686752629,-0.031159090920383648,0.033165559058820356,0.0019441076199987416,0.10555226342222887,0.1604774500659805,-0.10331066414967707,-0.20095663455553045,-0.10204833124700849,-0.28670124980279715,-0.03709034834753045,0.06561058682541783,0.009406899824686342,0.04724280899070607,0.10690982828172414,0.11936836465664523,0.21333195347464998,0.2186646483795474,0.10847407682478534,0.051085132519339334,0.38183527637535836,0.03340512379670198,0.34003949932506045,0.44960081578936434,0.5735095500154143,0.7644105572079749,0.9881116845646525,0.657403909399654,0.34085469278823005,0.23465552614999233,0.2903394213186725,0.31302444716780836,0.30811618719483674,0.3491549378758111,0.42126075003635005,0.40592140343306865,0.19824982714065845,0.14685931113764547,0.48088598279070627,0.05945067599027689,0.2937715761713565,0.3991769391861835,0.5439507066564369,0.7699265686853827,0.964281989982707,0.6922070574915826,0.20436968571702185,0.18116824953942512,0.16876875632685223,0.16557104643338363,0.14588873434362312,0.19622178086029932,0.27820572631441115,0.03054086302966706,-0.03497880926145519,-0.12595177509152583,0.7108788350550534,0.18264280228606533,0.12901084827561712,0.22355296376710604,0.4329829467375586,0.8003894914557748,0.9331038603606892,0.44162244315911886,0.10045812431455205,0.08262085537526156,0.1000117849747805,0.10633620766481239,0.11487854716027374,0.21561562247202787,0.2025270096382497,0.020758670123762542,-0.0641454837125008,0.09324835948760002,-0.39634058344464235,0.19170421372744598,0.23036587294795183,0.3842238922288736,0.6488534406945583,0.8864074264431013,0.6734969711313438,0.14227711558001008,0.028935561300144668,0.038107739284177225,0.09151428700188671,0.05192984800522467,0.10062609427578628,0.13333589597088932,-0.030584393936804514,-0.06566915368888449,-0.1110441987700995,0.5938866777384377,0.3222807119432248,0.14563326641469457,0.22843331129426409,0.42174220930040074,0.7125758242626072,0.7960711106984337,0.322676738329851,0.04062375622816133,0.03357520392028128,0.0698655610291443,0.04998182752256998,0.1374483787966497,0.1703197700687945,-0.02919577675419137,-0.055137290158323436,-0.06057541836927038,0.35063452120439276,0.30952658361856966,0.17485372823275477,0.2762113780044566,0.04886581745423429,0.034741871549372715,0.05003353094052802,0.15305608451347566,0.1920113041042724,-0.004548404856697116,-0.08136232164122702,-0.09927595921008901,0.48300744954190594,0.3595086841372477,0.17611279192035936,0.25893788500641735,0.45999946454389434,0.734308436445226,0.7757371593978041,0.27910505931164525,0.04176773693637773,-0.0006068357697925747,0.042013643633113135,0.0640983161329088,0.048217904797583436,0.07011521109350789,0.15894659595321844,0.0016021146288079677,-0.06408983181842463,-0.07330735881781997,0.5535885742364338,-0.028139876504792022,0.14479234062023594,0.20627438836855355,0.3892487169235654,0.6493579388802606,0.8661836194549578,0.4781612904968936,0.09566613624681321,0.047652275942760385,0.08343961726643348,0.11270576786320019,0.0850589462766671,0.17226276541853305,0.1917717667891964,0.042486251373803886,0.006136370341956384,-0.0655987718976741,0.7821337777501247,0.2894285296569682,0.20215540992862782,0.27501901241732574,0.46206114775565776,0.7455275014848972,0.8604693701547954,0.39552055299340616,0.07956323805491183,0.07166820312648373,0.08596008654458136,0.13414440149308973,0.2361659673132229,0.2199197022601321,0.0733403690629116,-0.01693396743334731,0.13224834877931643,-0.4004009486176129,0.22350693230249877,0.3329051300543085,0.4402556940117682,0.7135346634706897,1.0,0.7070309626029228,0.23203777671371578,0.13848950342308647,0.12975237497425698,0.1614546165910128,0.13249639180741316,0.2586899782774448,0.2167781118843314,0.04034618454979696,0.004466150407648762,0.0634938854121179,-0.40721466419694297,0.27101924303476854,0.29404002784749544,0.4088397730979796,0.636044675609877,0.9230720031672313,0.7239024247228681,0.24422944341370773,0.21455074069093225,0.20260926827013778,0.2737001916999022,0.28458896120568383,0.3579295995614795,0.3742532346514413,0.1763765670672035,0.11671040373299692,0.08877475951447332,0.6500216360420957,0.1841968632414817,0.33417550453151557,0.4084511233699236,0.5483627697568877,0.21071554122835337,0.23848891167803596,0.20098827034494054,0.20531904162678227,0.16336728540259654,0.3023463917415577,0.2622292905373541,0.14853248147771686,0.048707116585775645,0.114536928265241,-0.44786275205141524,0.34663224207699384,0.3490595644845775,0.4667633497550261,0.6639531331108816,0.9286045850623692,0.8639577697845497,0.29603789216772974,0.17463905657208012,0.13087922125520796,0.15588854998093488,0.18343531334619273,0.12700457553824743,0.06994580943437781,0.12793297087143468,0.21286465750207492,0.06677350144793255,-0.046353347958826306,-0.012745799991840334,0.37866290650962603,-0.05896215270688394,0.19176016303612273,0.23714308986383603,0.36621792773995443,0.6426897038027861,0.844406159005341,0.6005796607182997,0.1590323768407213,0.06294631511144665,0.09903154474436573,0.09583032584595888,0.10499112002516192,0.07896816534677235,0.184131396858318,0.19863202606158117,0.03245611910055805,-0.04059521728020748,-0.010709502136076951,-0.2464644261200839,0.29636114108568823,0.21893003290229784,0.3106873231620826,0.5833726819505154,0.8224484000428381,0.7328779693189771,0.2300509492221366,0.0989622911071088,0.0,0.0,0.0,0.0,0.0,0.0,0.0,0.0,0.0,0.0
0.09701722602403376,0.10441115721152859,0.11274036453379939,0.09049987973923733,0.08198082978417844,0.07938318114991817,0.19998657363841021,0.16617901482661931,0.029735462188927905,-0.034985237728689195,0.06309286426444986,-0.339174503258105,0.23671358752669236,0.2957530457402885,0.41752122413593756,0.6691087679418931,0.9585248271912328,0.83912170357299,0.3745486920642266,0.28285990599628674,0.2546417651804637,0.2895923985021769,0.29008949464266315,0.23461787363982928,0.17745756399425774,0.17319934152478172,0.28423110493851583,0.32964196945743734,0.13850108217392507,0.07731480329547244,0.03191945328063696,0.3881593784949355,0.3540673087372545,0.19976301896883816,0.28987639714638,0.4169743059082205,0.6902213716530665,0.7374869478514167,0.2833322630495423,0.04671711599056326,0.05694386880069943,0.06321012450338769,0.0742309800561841,-0.06285355447697102,-0.09135234574812193,0.7395136354221772,0.200132607453585,0.1623305233207198,0.28017824130562075,0.4317046602910983,0.7098504387164579,0.8759826838199148,0.41416771173092054,0.03774578279838551,-2.7513846268810226e-05,0.008866350701067052,-0.040401847821171864,-0.005932336040531986,-0.0015962361796953684,0.1379046574077619,0.06943843853906927,-0.0716415840952207,-0.11535928381658764,0.42923437084459565,-0.1702692908661118,0.15228563101482928,0.13207318529238224,0.3580096383602995,0.5796327809125218,0.8162897656811496,0.49030918816828367,0.08641646879235244,-0.016718361966059917,-0.018102299538984644,0.06323732374412055,0.03016834285350288,0.14345743410452869,0.1841375369474003,0.01278057734104169,-0.050895600285950325,-0.04401016105593152,-0.2126641077239704,0.32089496447341004,0.22604318157131184,0.3278369981587552,0.5233685276757475,0.8266983970168975,0.7637291792221714,0.2518194246725466,0.07733411910714838,0.08338967829192685,0.07816704573379371,0.0791453411126675,0.18334299706867282,0.264754959483623,0.028938237724516383,-0.026585569149362963,-0.01628284537517392,0.04270171743280855,0.31944145753255637,0.22379522894674622,0.32003771493439026,0.5283268392483391,0.8109281804041073,0.7745154112607543,0.25314812676689774,0.05469756006308323,0.061253910465859394,0.08098196733750232,0.10327197026052984,0.1440269885056536,0.2444151279530058,0.10935357556467114,-0.029720056694410253,-0.033073303295318116,0.38906284047928835,-0.14480901959059228,0.16695953076832218,0.2292258425379399,0.368267726768418,0.6854672349093025,0.8648550724548298,0.5673764074439235,0.13770161586390364,0.04807368329756347,0.0608040604053884,0.08761383245113773,0.07640654789590087,0.014699208825829474,0.08433484887938238,0.15804330482634876,-0.018397613899569117,-0.04012306801215896,-0.10364901521907735,0.5664563867916838,-0.007374685517266703,0.1324749672079349,0.18063227938693371,0.33860259698040907,0.585491112570708,0.754110654829251,0.4489453870221296,0.034625733810180574,0.15557248023945633,-0.023232252346874087,-0.09068509435620407,-0.10668028375791212,0.3648500037498539,0.27493066919507403,0.14978284489018637,0.20152243860870486,0.3880494774769955,0.6881616482816223,0.7213223886563,0.23519098271966107,0.02921872050642448,-0.01200683774174465,0.018871911838194925,0.05229582387966976,0.046466574881460665,0.1061881711723481,0.1453690976407706,-0.0009985547430944263,-0.06903286218040663,-0.09273579472897717,0.7023949307120824,0.2233861052575367,0.10845291701882238,0.18854259880825838,0.3794441918883752,0.6456053783066767,0.7540263252372154,0.34755964982733706,0.05004387922158464,0.014315988143050575,0.03200886974629727,0.05321091238128079,0.03799179738022851,0.030639449920982012,0.1222296662789995,0.1302838925626333,-0.025679063166136915,-0.05152463541423374,-0.08107061763191711,0.605284325222743,0.1123204577130829,0.13408314174952646,0.22577894659192313,0.23831431695646124,0.6323989644203505,0.8125789107641948,0.4688041882139733,0.0857939632300185,0.04938628922090597,0.027378013628592695,0.05469605604506907,0.08547981374942992,0.0663823207728152,0.037944226265490044,0.1461349450449275,0.17696755248772797,-0.02303304773850585,-0.08206887135376721,-0.10932101358914582,0.07674704622406589,0.33765187663056817,0.1712104678356689,0.26521447463018377,0.4549762233222321,0.7950867602957364,0.7945860651458887,0.2875312061671744,0.069625893617711,0.023581368703381757,0.014640981707544866,0.03593533189067625,0.03817376995241091,0.04942172786002497,0.16948614033119563,0.08394339443011208,-0.04532850866444284,-0.07859833638872664,0.2714078025572015,-0.12757850610850804,0.1165448204406422,0.19872463782237254,0.3145478847041725,0.5551071697728693,0.8168551949862001,0.5813877454087484,0.13723461483231034,0.033064309579187934,0.033376746507402244,0.08171399079264571,0.09572854694477377,0.1281340471514023,0.2073138532099705,0.08466536479917951,-0.01616755871663341,-0.06274869081311653,0.42247015179392006,0.01339286936915899,0.13736913339784027,0.20237583324577288,0.06212343309078612,0.047871528403691,0.04046633627679617,0.08014516244236654,0.056175633295097,0.13543413676743382,0.15634459130465053,-0.004927392567202396,-0.066096616082533,-0.08892562133462047,0.7747011560851556,0.24871293164365252,0.13352284686166893,0.25539854356197894,0.40255270629509565,0.6972634985553128,0.809210560464192,0.38654753774063655,0.05123954081905907,0.025991626390324294,0.05065580485525245,0.03882362337655226,0.0488174447031625,0.030411135817255224,0.11398023528866928,0.13388766335401014,-0.022165840047453814,-0.07470817317681254,-0.0876894966879744,0.6797017761950745,0.09425093231492464,0.128236257419527,0.22457298534368983,0.3792105904173721,0.681049705402318,0.8502991458930635,0.49674449814435523,0.059563459225405964,0.006939840337881612,0.02600845564741194,0.03597286745586271,0.03869541588868004,0.02324952451978746,0.09599049649128366,0.14243387051437606,-0.02739003315403145,-0.11280080615742603,-0.0876053962789334,-0.01013046553195248,0.28464065801881167,0.13700805249912906,0.2107486598870837,0.4328827357009974,0.7020447246750137,0.7100636772648766,0.1755902887091992,-0.00398107788242277,-0.01736379465117197,0.006617862614820292,0.018680971480360926,0.027247851724219795,0.16301352927801624,0.07569162618487264,-0.05910724431629235,-0.07824966372425675,0.16081665478393284,-0.2470892154863294,0.14660238618438787,0.18626111564399095,0.3176552654523774,0.5436252188742955,0.8146071425149704,0.5598154846976836,0.1002410644262324,0.020444645574710575,0.014765649130819078,0.025520117454169322,0.04181208013138583,0.03964478205383165,0.09296426686273497,0.15344358041617573,-0.019075746574308706,-0.08832403841201614,-0.06519722023525673,0.25620185649212995,0.3050947205212543,0.18226625594401816,0.28887917335448454,0.4580882108028845,0.8343432281654409,0.8502894260212774,0.510629859738517,0.33161280077811534,0.409639099581783,0.43030877246094407,0.42888256381965545,0.39726212994005156,0.34855757037120955,0.4627544161163768,1.0,0.6221591754213073,0.46836366846242017,0.4858942191245201,0.6157908174502897,0.8393287565193563,0.9122617961703023,0.48335079998467145,0.17859870548057105,0.18076713502399286,0.17510376876447312,0.22427907553181295,0.16450843312868418,0.2811714840948064,0.3184651422200403,0.05926304591052552,-0.01018224088676231,-0.038376478859199786,0.6555719009296386,0.2456538018284236,0.166048943672821,0.20025302399144104,0.3756826683715122,0.6879376196172408,0.7682927067011712,0.20715774558746058,-0.15051741212202535,-0.15162341342071411,-0.15645759613133184,0.0,0.0,0.0,0.0,0.0,0.0,0.0,0.0
0.035108168661405495,0.028127474657894364,0.1326533098224551,0.025902791715073738,-0.06946733295992528,-0.12269157042608685,0.18261583718220636,-0.10195739974152127,0.03854715883367114,0.07756635274325398,0.1737606460607799,0.2926541001741796,0.42128874541922257,0.25451134370030354,0.02567101915020821,-0.01161043034326011,0.0050370692836769326,0.04575672547349137,0.08549344461031104,0.14009548018469103,0.043122983058688266,0.03236943839094631,0.024979649074728327,0.39977513881024623,0.16157283976575657,0.1684753563171145,0.24194559861781137,0.33415923565832356,0.5077303816047908,0.5944330385003955,0.3749981206912369,0.2577566978183629,0.26156478540704947,0.29323688058745156,0.3426382158864349,0.39625356659412087,0.4016186768978314,0.3148037081640322,0.2901702359155352,0.279694481819071,0.7573164133724195,0.4679982308970028,0.49762778047679457,0.5420803544840948,0.675497913317407,0.8907460800967527,1.0,0.5991749371610389,0.40867380941877846,0.4152997972335775,0.5078632971950915,0.45673010094774114,0.6267880442980578,0.6110899865219236,0.4389311819038735,0.23599399507106072,0.2337743684072139,0.6594988651019671,0.40515788911940936,0.04351983273706661,0.13259020679582584,0.19462462635087424,0.3887289359498939,0.3637803581994095,0.013186419229667965,-0.2231398315148337,-0.20814971374081326,-0.2644939735482382,-0.2095554997559715,-0.17244843919149822,-0.05783088841825065,0.012866486385426807,0.11402215234354676,0.25225684957838723,0.43952599713097107,0.4485867546191441,0.10038916692746101,-0.01993346138841112,0.03412236349582002,0.11480596290121556,0.10442172373488653,0.17088712356701755,0.11540966792482672,0.030322763256102538,0.026276927293588784,0.3181377238587408,-0.05013873486882851,0.19749242475153533,0.25153199405603477,0.33182715627051607,0.5616558295341328,0.7036314384814651,0.4968895037402794,0.20857384003003512,0.22213420645814644,0.2715416707848445,0.2602492675909185,0.3554478174230079,0.4182613869433636,0.35782950683781883,0.3504077512104468,0.331096648901468,0.40572294564496425,0.5008473643128806,0.411070106510335,0.4762513203816546,0.5978694701622295,0.77147886337823,0.8053635772863509,0.4971333336905791,0.3703433788066215,0.36629296247164606,0.43179257346997946,0.43148803407268144,0.5398231345456758,0.5259384231361052,0.36331178679155385,0.48709536542118237,0.27214765865438795,0.16375352752119313,0.6559250801121681,0.4564322308001479,0.4768551466290093,0.8770351242786625,0.7728806827878453,0.31693484237904224,0.1339062979489324,0.0713342178116109,-0.039248646337056665,-0.018985187675945283,-0.06995135144239739,-0.03747096086733323,-0.013349698949560668,-0.11144205159989962,-0.15856483874103164,-0.13766924822078286,-0.22767288523021598,-0.029317123260107388,0.023845919676425225,0.13689621947863656,0.2840751914898162,0.41259163815842803,0.28505332515019005,0.040912378263396644,-0.006451383620841314,0.023830799190271205,0.02952325452939291,0.05350896466842511,0.08674100704691363,0.08353681489283955,0.00781683598159222,0.010056974789897248,0.23415295624035018,-0.018257525091953535,0.10524110573457936,0.1479738880143873,0.23836431169681482,0.3789232497751725,0.4880412903951289,0.31693599084011875,0.07458683488626704,0.026169678070133318,0.07281817757432249,0.08667767334148972,0.06687206811648104,0.11958549510753691,0.13634690055713858,0.023089805159969702,-0.007298291315078978,-0.021319212039310628,0.43791384290997826,0.5400719496869454,0.29423650879198315,0.07868545318112577,0.06379837412712687,0.09948384445964774,0.12297036045988764,0.07290865406487977,0.049606887942462236,0.023904150443997123,0.015545731320189429,0.09282756696617006,0.11312533776405641,0.03856298256391972,-0.024862243258159045,-0.006721604002008299,0.004069893609634475,0.18500464959304547,0.11015837842265867,0.1734558036917402,0.28509185289455485,0.44560413647415786,0.45510131755301675,0.16650879662131132,0.014469684471283047,0.031348482556120924,0.051571881000291274,0.03512260700413181,0.033927254844527514,0.021661924092085127,0.0002793645358032458,0.05905246009958138,0.08362542203288872,-0.0031889321068460023,-0.027287973618050677,-0.059456701287501516,0.3388609191026069,-0.003951586833115122,0.07163575467368496,0.11550866070584612,0.2119666012513304,0.35087456093969516,0.4621638338071088,0.27409154621696674,0.044702742305394054,0.012834199245852815,0.01166570285126601,0.0355014954428492,0.036319452049581105,0.018738393946528875,0.03041463631323914,-0.002283593957877325,-0.008225131724148089,0.05046501948451056,0.07454673747658085,-0.008544107118218406,-0.03288638480177635,-0.04614595718572044,0.36462427117225205,0.019448261118535683,0.08585772319212241,0.12156179697069763,0.19983209059113483,0.36850825067587134,0.483004276370229,0.27691080478041374,0.045084255855355256,-0.002095111303384107,0.030083836094725074,0.032419913921101,0.04207545266094902,0.03361236542537352,-0.0013348481582793822,-0.013333325375333157,-0.009681558043743443,0.059054710027790974,0.11390899480947946,0.005844913082859887,-0.020077426296258177,-0.04887201696451665,0.16843564401886307,-0.0786309146340732,0.08650973813968534,0.12678335225659654,0.1754003647771443,0.3481420986831302,0.4675281449878637,0.36425706917203454,0.09363908320227878,0.016336663859912195,0.015507031625546607,0.012009751768873516,0.046569573544975415,0.020127661598008755,0.0013296088731976526,-0.002534456157325525,0.010490339301806241,0.032044294029808185,0.06479383568103435,-0.020553260964637842,-0.05433775783087559,0.10375766605813924,0.14678378349049365,0.24938599416184512,0.4101457458884119,0.4476675056408082,0.16099110988753892,0.01108071963970845,0.016785388073067654,0.03618527554859987,0.03210918110607786,0.021983104590313062,0.04297330670840113,-0.001668812378875634,0.00507357705665461,-0.0022480535157702068,-0.001584173916871799,0.039607616021196,0.08931335370955777,-0.004879907902700549,-0.04094718526495337,-0.06441858618745364,0.4448939102229547,0.13433419376815942,0.0650884321898005,0.10911511296660972,0.21075394329676764,0.36502895057920853,0.44567511384886677,0.2609798655713626,0.031109634885714693,-0.019146571475794422,0.01737493880353149,0.01511681625318948,0.02387347595201395,0.009675847636974802,-0.006314351687412332,-0.012538901647811459,0.05004473435125723,0.031694205427668924,-0.010325427193792407,-0.034932849481823736,-0.03750330152178788,0.39331511287447374,0.10209305448998553,0.08261536809731235,0.1277018315486974,0.2169055256399589,0.35485456309371727,0.43093459307699755,0.24098479084074495,0.0391400685637871,0.009108846317555886,0.024265696612345424,0.027343383793009636,0.024208331053603926,0.032642214371302956,0.02934517115715176,0.07638116007773667,0.04250013658595009,-0.019482234266285196,-0.03345324583400837,0.16135427726876075,-0.05857091879495287,0.07718183504203717,0.10214020549892276,0.15822770434026584,0.2977351489404004,0.42996789155480497,0.34187475136182766,0.036835666648811424,0.009783143547133935,0.02258628740778089,0.04287692555584964,0.0336628898941092,0.03389017578869182,0.027551545291019903,0.04327784121222195,0.10045200362189646,0.0436384296794731,-0.01708142569934464,-0.023200399738317272,0.22873122503145932,-0.06637453802211025,0.07761412152316502,0.13535926972027673,0.1824494668653701,0.325772724096312,0.485838107553283,0.3836147408243746,0.12687487291861752,0.029862972199315784,-0.0015015197075984798,0.04522782845821534,0.022617961361955912,0.02598942835464494,-0.001391931631457872,0.025479372929068628,0.05449306574605599,0.05808088866660418,-0.045567387390000054,0.1922393132205803,0.0,0.0,0.0,0.0,0.0,0.0,0.0,0.0
0.5067474212837673,0.5138975680509775,0.22633826252877617,-0.006540798161470044,-0.032133939487437334,0.016105445079055866,0.005428141480889569,0.0012699994097307306,0.052473509761798674,0.06672098356769761,-0.024934640854566006,-0.0593678245152102,-0.07444031066785851,0.45569765585982475,0.14235962151551446,0.09076448936531643,0.14667320715838278,0.30682221599416465,0.45974000450327585,0.5937472260325366,0.29588405984983074,0.05156471483292144,0.01713979409566982,0.027376201273117764,0.043477267335858175,0.052120456099175975,0.027129024680828732,0.047728681942451404,0.09919402468621863,-0.023205921824392302,-0.017288031674101225,-0.0641769724566747,0.45265269452987766,0.037705206659688434,0.13039886094278927,0.18339243627479412,0.28433113148998557,0.46547021997819477,0.6429102318859405,0.4240199176647975,0.11986230073289776,0.0767883277894035,0.07440427208372026,0.067130277545468,0.10520676366866945,0.061255052916874296,0.03249019130615523,0.12033367871602585,0.1410819987813097,0.0353641664348852,-0.025287119007342262,-0.005124203945947044,-0.2390593424386004,0.18716975032766417,0.1774841416621442,0.25844483178553934,0.4188477625325102,0.6093930333757085,0.576049656170149,0.20571006042784282,0.08405339610278333,0.047253353356932766,0.07544788236173135,0.05809564516068643,0.04170730504040058,0.03259530460346956,0.11466323157187021,0.14348091876046182,-0.004582282538620888,-0.06566838795424192,-0.0559022358682205,-0.031132938580052307,0.20496760170245992,0.12236318991634355,0.15740289340333632,0.32716140727545784,0.5000737814237464,0.5151261089667735,0.15357588520703883,0.004375976300575504,-0.027353750787450764,0.010482037236270295,0.014825972684447557,0.02798756911450426,0.052545753541028625,0.06022973869661087,-0.026544102588820978,-0.04908000421884693,-0.04195693585532601,0.4304730953012868,0.02510365630092707,0.050954719900224835,0.11891729099125838,0.2257355079003703,0.4471465214032613,0.560907510494589,0.33706102485150946,0.04905577278708887,-0.011431928760031998,0.022157509043273394,0.08439404995953544,0.172481531239755,0.04594142037251696,-0.008458406939867272,-0.010810085875546474,0.5855391260752962,0.29023625603230585,0.16362430038758705,0.23562227945521885,0.36250268528906804,0.5484745633496401,0.6797221538264804,0.47602622019119445,0.18978670254767133,0.09957655728189405,0.1614495146055229,0.17674351733082433,0.16461239260948862,0.02455012884188434,0.16460045026361728,0.20123492573945517,0.18118237968434847,0.09391195068409088,0.07168800720639482,0.22200130512570623,-0.042240598676230624,0.13572230557517342,0.1487015125091226,0.20094512697169808,0.3726010862332531,0.5138467686318111,0.4484485841891138,0.12076416431440058,0.04563231465839064,0.07813102208513323,0.07333804529785462,0.09222829020730006,0.07471508761992932,0.1385637774778682,0.16993380966534,0.02436807580012819,-0.042481751269897276,-0.030641653365091455,-0.13831872081608249,0.07197106562461016,0.12252082658485317,0.1792576239418411,0.3265435020722913,0.4795343679619399,0.4332581230511162,0.08861040124755465,0.0074134296171004714,0.015539676931771237,-0.029120306274927656,0.060853496969539574,0.01341217944615941,-0.05530299315981129,0.04516860688073785,0.04138070142416819,-0.05335239744599771,-0.09834523592819541,-0.05667404181265169,-0.2340229424374729,0.04947973565228505,0.09928587746896379,0.18489631890301336,0.3736532038983094,0.5564475350204757,0.45589804105209264,0.11830749026337288,0.053187404400776454,0.0460185521560691,0.07976545387134655,0.09485738062348696,0.10767859604222518,0.17948499760854206,0.18082548482466257,0.07292711163122888,0.06918792722083512,0.20562056366854797,-0.023733623994709553,0.21782330185114807,0.3091154368286893,0.44016936737668405,0.5701057445634782,0.7886862917840962,0.7002565037662131,0.377043142704439,0.30470050751057337,0.32010511505346045,0.3416963635959835,0.3482089461856325,0.3562366886308801,0.3258141227296636,0.4116535099252446,0.42725049362374345,0.31604080544803154,0.31499641483776986,0.39793149351162377,1.0,0.9916728407608912,0.619026487357195,0.4191000291955353,0.5437771990321569,0.4585366049500712,0.5148445629758287,0.6018888990726214,0.5357039803610422,0.61259294693144,0.4031901365611382,0.4204410949589248,0.4048814487800977,0.13326960144001654,-0.06024234977649737,0.4719006563443981,0.5370355525895566,0.6777854691415041,0.32174570555511545,0.6348349450119227,0.515059129825517,0.01634523048039443,-0.14061087597040844,-0.11713076978757969,-0.09508905609546103,-0.10397101204467975,-0.11202115042931826,-0.019231109004594914,0.05332950034450684,-0.10678728586344693,-0.12144731616958034,-0.025236205634223904,-0.18950255175411104,0.11657860155260974,0.13676050434870135,0.25272444111587744,0.3934568799134836,0.6003570044197248,0.5158809446147318,0.12603390662597438,0.08499225241851474,0.064886930476724,0.14169743756709424,0.13058381746929615,0.1444505396837255,0.19757626644688808,0.07193229457012111,0.014569637121707196,0.012888363439818924,0.5735896381532479,0.27293907592981886,0.24818151190532592,0.3467210164505318,0.48186632785713196,0.6767676321915062,0.7409627747396287,0.3853610626047018,0.17507411497396919,0.12085412160768384,0.13319128027557187,0.14875058089126247,0.1427583153429836,0.12666491073215178,0.13552467892067582,0.2378116706535688,0.10446042601753891,0.022227238456070487,0.0897322173872295,-0.27122560332201084,0.2411067253995313,0.2546444336038698,0.32423139787983624,0.6508749522156386,0.8302747673720204,0.7187126793907512,0.31128945749238773,0.029854722438170892,0.23759560550829728,0.26961365277681004,0.1658752543417213,0.21220721140463641,0.24641554110221348,0.1168220998799272,0.013196209968489457,0.0002723498329077675,0.06168794485434971,-0.38800074405130425,0.1775558248350317,0.2469958159207106,0.36980155562972133,0.6009261103026297,0.8048479465831508,0.6712282718641827,0.1813929721966539,0.06827238880160585,0.07480507014134141,0.04816339117975436,0.028095483614547518,0.08730219274046516,0.12366996875509906,0.07014115982693213,0.15062507198272065,0.1730288246811776,0.3054041938430859,0.47531563569354385,0.6294902089547353,0.36268699756486167,0.09138241828845695,0.06471550452419274,0.08403858696588008,0.06849295659205941,0.11787646122363017,0.11580587690614821,0.03447306209606396,-0.01884696157251465,-0.055136046485529965,0.3876525520535113,0.25059331790541295,0.11469412377313397,0.19193524173820176,0.2962901195846186,0.512833565419585,0.5819182834879705,0.30208792910724086,0.0937826217300266,0.07876100057635896,0.07893272167647118,0.09920111325585264,0.1035700519811033,0.1642501376168307,0.02836237697453497,-0.016404366659637983,-0.034093261121871686,0.5030050102355922,0.17721014802119642,0.13462593299431957,0.23922825337955936,0.31385955847982877,0.5328592818710628,0.6608735921758867,0.3361094806862604,0.09818584832759585,0.058798925892700915,0.07209724924413043,0.07566313632015458,0.06316867974572235,0.13625910403686084,0.14931530531550727,0.007899746752312649,-0.043080537264657805,0.06226043339451533,-0.2496148094549763,0.12882404759799013,0.19964758233483337,0.30080578110770784,0.4788126380303596,0.6899690091192042,0.5493583673613921,0.18692143500445624,0.08315953233183353,0.07961292184754218,0.0645632295690726,0.036835991518921044,0.04363416249018178,0.12000765047643297,-0.03646950131988074,-0.09370419559591456,-0.07974528003238675,0.402717491311552,-0.016304735548533313,0.07409933188807791,0.19296901748271497,0.2746439837732231,0.5430282512806062,0.6714063070296988,0.3739589798004509,0.08585568720504629,0.06464521568171436,0.05558602114960399,0.0696632516812923,0.04073784155792548
0.22623779671650535,0.2649933411848028,0.07108221840307175,0.013840219397447312,-0.010337479681931676,-0.054425409950276935,0.33344319363238817,0.26797192153365096,0.41379562653949775,0.592098670723152,0.8865803105089762,0.9047773107943194,0.3663111863585477,0.16144313469131563,0.1449977209912805,0.2116006062666447,0.18915000676089624,0.173327942973844,0.25308428546809675,-0.4349510239007197,0.3261082599146203,0.4013198642783337,0.4974786975323508,0.7304949981397268,1.0,0.8784262287950453,0.38626528028238605,0.17644489070430203,0.23345302300964846,0.20521654852563873,0.18743258033924537,0.05981334933728142,0.20134990335853126,0.2187004758719825,0.028157686243542222,-0.010898107466557859,0.05469977232512069,-0.3530607702228791,0.23409396868315588,0.2533807216759994,0.33785092144493445,0.588204280825515,0.8525723358261712,0.7496374169399098,0.22732127490235304,0.07874702942710159,0.07477161021001519,0.13170409588185528,0.1298558818626678,0.16698486642835816,0.21851597898511177,0.06935096939235404,-0.001304988834050231,-0.033247615231356026,0.7113279088700323,0.27482127496984415,0.1878556925397265,0.25786472483255357,0.40671146701835825,0.6844432655661368,0.8074718345071653,0.34089970195478775,0.058808163028164086,0.026744402305730684,0.03369061651572537,0.07671087638793803,0.052779004536063205,0.040903614145078544,0.1631142290983439,0.14722573218937532,-0.0038464208087107235,-0.06739906046245618,0.16317499023036175,-0.2220126008600607,0.14844191586971173,0.2361922819366332,0.3564488605284053,0.5788782115373291,0.7694530206638635,0.6009867851299243,0.17503759555938134,0.07634393391708841,0.10384848329925779,0.08078441237051465,0.10841236962027201,0.0597169793293419,0.1290241584285833,0.191073656861746,-0.01197087694449143,-0.04053546384966928,-0.07870568854752437,0.04004465501369388,0.2899709389930355,0.1431219706960442,0.2831618614037393,0.459872590973051,0.6940388572811778,0.7971904069125397,0.2776566667481627,0.07341231502601062,0.039292089545584864,0.07022492512197998,0.07723591795034765,0.06178207806157761,0.14970097625919662,0.1893871974722453,0.017820797110728273,-0.08697891151516618,-0.08960871601566502,0.6435420485654088,0.28832504825926,0.09616372317267656,0.19232034504032644,0.4073470257664957,0.7143208478084454,0.7737548537253245,0.32429901526401067,0.023555137576605895,-0.05736934318465401,-0.025597689097185884,-0.07721667185238756,-0.1256000554685683,0.49711058019566484,0.3249938597102109,0.1429820703287734,0.18316914776972693,0.3893771769676151,0.6586015587484577,0.7795511579432112,0.28426780407926816,0.039616485500969245,0.014869323805628868,-0.0012736263593643405,0.028649509209365556,0.04464459550908771,0.04320093726028901,0.12792156086368298,0.1659391469818673,-0.008977623217863011,-0.0034929675096557382,-0.03798047610381778,0.801540828812958,0.32831169097292423,0.318199485741612,0.35299004270867285,0.4903344704498742,0.666720437207007,0.8277056521501982,0.4871694396658414,0.15257125596255608,0.0951906527201695,0.10985422667737645,0.10055067088521868,0.10881882340013795,0.08693539877205197,0.11887404069896393,0.21895462790982842,0.12200514043918662,0.0056486346946617375,-0.03414487635028771,0.19751402749222136,-0.39511722760112866,0.18623043501529074,0.26052888678405905,0.39848319938844445,0.6109365500613466,0.8864878836963002,0.7270377616104282,0.23531545171773993,0.0812237048420917,0.11579847271431186,0.11691003803459779,0.11762854154989602,0.07990690390654802,0.05642238362095629,0.021126016781009185,0.09371376108476116,0.16443520410674958,-0.02542501043545554,-0.07112045691042015,-0.01567370333563362,-0.04550447659399306,0.30209119799134904,0.18396800556145773,0.2896450482924169,0.4470463724644387,0.688079329133381,0.7355989635814407,0.25304668720961043,0.06513928637016053,0.022908963344064184,0.08801347224078275,0.05646429739064192,0.06697857454034595,0.03848470732630429,0.12638089422676668,0.1705765276190784,-0.018871059292052822,-0.10892008688503182,-0.1022092090309591,-0.037949363649021246,0.20796308803765617,0.10904987217781609,0.21436103991875635,0.3889972194536578,0.673947259212615,0.6290632937277695,0.22830947587936165,0.03067625547968915,0.02358590692183108,0.06364106113087331,0.05134338885027702,0.05225507574908414,0.02687273323795144,0.07295074467612692,0.15332661425004657,0.01982886315364245,-0.01878077276226318,-0.06727072277179194,0.4187145805834362,0.6492953610091663,0.7678858423503918,0.4074961278987587,0.08321289118975232,0.04057993970859385,0.0194223676265691,0.07593166304793605,0.06728970184500178,0.1129022825107011,0.14253050562061353,-0.02849556395567628,-0.031131864280328547,-0.06819132126025568,0.6698306743806414,0.12817149759959953,0.10582590232242986,0.2349255752056532,0.3752919719593984,0.6568715243387322,0.8197842668415711,0.4408420827879591,0.053561734420189355,-0.010771006920203387,0.04151101042104866,0.03685399912700881,0.051929163486643136,0.1259469089085219,0.13393453118066703,0.007402279326041768,-0.06928111867880082,-0.12012164064188566,0.6983286744240319,0.25228832063197076,0.17832462885378744,0.2578252621125921,0.4208488060477292,0.722711487277528,0.9000195429310821,0.4575880436739628,0.0781882929641026,0.031351901389971105,0.06011285668155301,0.054420837738424925,0.06782275076906175,0.07748069539691468,0.2223979936941062,0.13351799466550476,0.03003164914225686,-0.05529584953562693,0.4268472979754958,-0.19873850946399488,0.12944130023191758,0.1833899587661214,0.32396690004130185,0.5640566505978822,0.7845519828497421,0.5590487446951801,0.09153076652736895,-0.00780737681473108,0.014316872625569146,-0.00013688684611476654,0.026090357019171742,0.07836205925470775,0.17511224327989494,-0.023149925464213534,-0.07509647129491216,-0.0787715374783731,0.3059014612026335,0.30074871490759447,0.1920031291379916,0.2685300551171069,0.44049048321880174,0.754716772288649,0.8401190969642974,0.31097080571816343,0.09734513464219507,0.07163672431376107,0.11677552644557238,0.13705539133851738,0.12017798513490088,0.24641526068691258,0.18914962850011413,0.014220737265576093,0.003743807097141249,0.2525309139491727,-0.21750130028839262,0.16551828664209695,0.2722199528953199,0.41371084525526486,0.6160448851000693,0.9257601988694648,0.710125531900945,0.23136249667579833,0.15790269473775456,0.15581246891860107,0.18615971259880867,0.1614298055239534,0.24755166736889794,0.29203818646602414,-0.2913226651556164,0.2780055490327299,0.2560698961967462,0.4172644029199839,0.5901012965045811,0.8764361401720114,0.8232361927107568,0.3087566411956981,0.12669232608303257,0.13773311138637737,0.12911030369487037,0.1491081790045003,0.13655513444330825,0.20324150312554776,0.22712075512214033,0.05424528966661723,-0.037951239479323474,-0.03923498993578911,-0.16705881213858606,0.3096426391957552,0.20677665794332234,0.3221496315368698,0.509149699854123,0.775395766243486,0.6903905939869782,0.22574935435513155,0.07654188634325759,0.013027976987555031,0.07647116444246253,0.07605470776529796,0.08581973540021821,0.12654268411995975,0.17978298067747162,0.04067432921348848,-0.015979001392564286,-0.010960607799076717,-0.2108878520449626,0.2967543221830111,0.21169079402220253,0.337585259148213,0.495929865447642,0.7806825119677643,0.783299592424718,0.27551280493864155,0.084678344432394,0.0706135915120833,0.09108687603151558,0.08668925239289,0.09107753398984467,0.0840584672674805,0.1771358165258713,0.1496426321511,0.023234429615740165,-0.023860361188447518,0.0,0.0,0.0,0.0,0.0,0.0,0.0
0.19245130571925306,-0.23164831088700197,0.3859963280705369,0.3641281121285612,0.4967116234213081,0.7187321317074752,1.0,0.8976306228980708,0.3666317548260049,0.22406624023482355,0.1956282808597714,0.21905850540214789,0.2296308952670886,0.21378097152704884,0.18506546780051833,0.2655294916047441,0.26315261656245187,0.14063382810173203,0.039740018241285535,0.05261578409483677,-0.1289575049022489,0.3280978675441684,0.2609126880382679,0.35525155136087033,0.5611837137245846,0.8056610067618506,0.8461177018067578,0.3157759582267406,0.10626959958198534,0.09984756038767426,0.10540458646207633,0.0843982033274023,0.08674129040387608,0.11519038253961765,0.18174784020604484,0.025959006339931597,-0.0630956720289118,-0.03735503752749464,-0.3301738411303066,0.23425404693916999,0.16144642853535218,0.2654026802417578,0.49775358458714297,0.7580413361960902,0.7238954170129699,0.21317645194274348,0.3736617466792326,0.29090350185335206,0.07586220945721445,0.113494391771315,0.2749723816762007,-0.3211775648625581,0.2624456942608199,0.2915842331705868,0.4313831098368679,0.6556739350881434,0.9327384072389743,0.5589601016052412,0.2866955656048805,0.1803768577215567,0.18115114523122205,0.04924621930722618,0.20722934202349014,0.31238546536170897,0.33575490508180306,0.07054002724064107,0.11898921047535371,0.027735873908374016,0.7685696130783883,0.19790690800179833,0.2842801284379383,0.28490921048090345,0.4944429656244964,0.7322710512665815,0.7579881755914646,0.5013165570969149,0.07720801957862856,0.14614118070668647,0.15363579618111772,0.013379821725461864,0.12479726834348198,0.1442210386691614,0.3052582021733422,0.1714695144581208,0.07631939835964256,-0.018119997044661364,0.18278022295273094,-0.34394128003330415,0.21057426577421023,0.2615329239045185,0.3489300989962922,0.7298243525336465,0.8263352838722419,0.7130565432844538,0.23342116612127442,0.08274731536876748,0.036040974950840014,0.11179254407220213,0.040317159287811453,0.10269824560160754,0.21325073968416833,-0.06476058117190256,0.019147692015409595,-0.0333963063237859,0.30865233455076946,-0.009083568382864818,0.2006187287747538,0.2279586270370704,0.36357978380686123,0.5871421945698713,0.818511559912927,0.556229427918012,0.14024285312052173,0.05781984089532172,0.08611497887589735,0.04050043749435859,0.12191697065812525,0.166694303537881,0.2028673284901717,0.22795744861075218,0.07459342794712215,0.01521662621146036,0.046421293478967535,-0.3092232912297301,0.26246876846440337,0.1902634169763243,0.39633321897163504,0.5382697201317083,0.8154932811977991,0.7999087717153832,0.23293173814364723,0.08942472198945008,0.1425435958761293,0.10688414288150351,0.2055856965030285,0.17050247676326385,0.13292607880178692,0.2059629352320818,0.3060816989584289,0.09393681828179765,-0.05015160440518899,0.08431310058299804,0.04487557338927217,0.38599767360332904,0.3020162890290435,0.41180673155446423,0.16120070268332434,0.15150205246226187,0.1798974718903749,0.17178769049606535,0.1789380824948226,0.2790026892871638,0.23279617121697319,0.08684120690548842,0.023887531786056484,0.18507628010358382,-0.4599525904171724,0.2425434570951282,0.26457576879807915,0.3723740475869621,0.5591793935113315,0.8231623830597177,0.7309986947687643,0.2259908547320163,0.06325930320290067,0.06528399275318976,0.02033340013813547,0.04923280292196138,0.1032926226228196,0.1828282090425656,0.007992737828795997,-0.038721152855095205,-0.0864472143912786,0.41682558430748806,-0.05390156729735384,0.08681207466195184,0.16524301179577092,0.281271008911575,0.510426521700405,0.7328343189965446,0.4603072875320961,0.07503586144446882,0.006364095916049908,0.03793856108931979,0.028916913145087146,0.059750425197868044,0.13568731656126493,0.1550271082180925,-0.007355214254913446,-0.04324408649403269,0.007300986521506079,0.8858417300101535,0.2228817768619767,0.19253216540797788,0.19533322928353608,0.37460717228871615,0.6471418679786893,0.763290648937232,0.39635145095823343,0.012022817944023902,-0.04420005924753515,0.03751132629042885,0.05188745689795191,0.019575563649538157,0.16741420123606107,0.3055437393433041,0.10078669097416831,0.027470689547014742,0.0473718890326775,-0.20751694337955182,0.24906550580661713,0.25549422189209725,0.29104576723979314,0.4759323561023993,0.8440663270945337,0.7700993489557045,0.2802319442005454,0.12618393358861532,0.10206947880043221,0.08799232236404254,0.13172119897315318,0.19010285328489082,0.18947071556223663,0.031808782651217095,0.002511657585412886,-0.07287351297797587,0.7336627258124977,0.14384222487301085,0.1714967476850743,0.26369574857543526,0.4688228894661704,0.7505031366109937,0.8606197734985039,0.5815649868902862,0.12875980572659942,0.11891000603623275,0.10355164526018262,0.12211447025772144,0.07718307204983943,0.20112468051382634,0.16629103287192243,0.0016302622087119329,-0.060492624590992104,0.12968745452753214,-0.1465906312921076,0.23530724036754044,0.15966048243082603,0.028674904590302513,0.03219976229570633,0.10272994961104426,0.08553715325795622,0.1387243202981032,0.12173979375732182,-0.004568132977847883,-0.07069452300985092,-0.025794333534498202,-0.22708405085588998,0.21615909005767195,0.157728496874959,0.28988105987142937,0.48565430406332777,0.7681819148480358,0.6995150174421125,0.2334340830896298,0.04677356504787792,0.01286681364737607,0.06915434337001711,0.09574979652049585,0.12502153992794188,0.19765909506894025,-0.0074855901251593224,-0.03333472909570959,-0.0968621292933044,0.43376817510222665,0.2758092532611035,0.15664878380378683,0.21222067784475168,0.4221962805819791,0.6540579295763094,0.7900798663345687,0.3041566083434989,0.06698029877476387,0.04156710247768952,0.007548706028042017,0.07865475861455407,0.0295853629258574,0.10536661961649348,0.11922417071652308,0.007666589152545413,-0.04900511060797828,-0.08161287379215482,0.7765295821339021,0.13897405206978083,0.1286691233959244,0.12458112819279754,0.3440032677611053,0.6251314879765555,0.8311249148904125,0.434022779246913,0.06934778849571714,0.0003044376283823594,0.03456449858352289,0.07565263016426217,0.040038081412202366,0.09229768178724179,0.2157813776983845,0.06991136887978938,0.03069387421591776,-0.08033258810524177,0.4534082497560912,-0.058917433591647986,0.08831353388685957,0.2253658995649025,0.2881339553487194,0.5490747059195151,0.831891929150565,0.5331094765068806,0.09284150968108211,0.015615131483404708,-0.0927794263362568,0.08386891506597698,0.059204738754866065,0.07855953007976231,0.17490872242706373,-0.029306557856371977,-0.10013269845748411,-0.03140690126434898,0.3494758123755713,0.29388776688084384,0.19911927889376474,0.25256910883198797,0.43451881253239694,0.7036740778832373,0.8393609891809916,0.3370419509295249,0.13674908678204994,0.07820797494016075,0.0294987051392438,0.08430970372299884,0.09808396747652481,0.16296831048073124,0.2151554823676207,0.004679396754712483,-0.048997933042083226,0.042709798128926696,-0.17049555929701893,0.8400953367815001,0.3884548143905967,0.08713696348849645,0.1007297207192262,0.11979569206930708,0.11043550790442684,0.0905282518590849,0.08565767149931705,0.1254137741267924,0.17497053209143648,0.040773838846855176,-0.09101823719642672,-0.050274681000428006,0.2342091943755859,0.27979191811420645,0.18881085528322486,0.27380026742119573,0.47744309882377167,0.7584477742899296,0.8816570941242478,0.3471588409169733,0.03149619453178885,-0.04715047540757777,0.03878570180977461,0.037498645190240064,0.0,0.0,0.0,0.0,0.0,0.0,0.0,0.0,0.0
0.04287476146125669,0.028690355243061072,0.08512720735540746,0.12681037139579374,-0.008545210702004561,-0.054901162016373906,-0.04176432001086068,0.047316021589559526,0.26120302071878637,0.10507100064940011,0.20968316345646804,0.32641973807443486,0.563153229565008,0.6340156151288621,0.19702584501138712,0.04425478674771284,-0.019477168966583774,0.011389264909958528,0.05849176332421531,0.005254955621396862,0.015412380278814563,0.14410494249913128,-0.01957987855413358,-0.03329314718343112,-0.060045527120833046,0.36887906535345166,0.2691414319534505,0.08575978918809807,0.13967972190867758,0.29595092025082026,0.5272475655185959,0.6381535800504221,0.24170159795520282,0.022577725427797655,-0.03349223613113658,0.015441762889319591,0.05473903395416105,0.014985576375450612,0.06039842615667956,0.1394604565220912,0.05336493433088633,-0.024239858650236822,-0.06046514417153622,0.2382991573491845,0.007186492099414327,0.07697002275379684,0.14049811895093112,0.21180135367024985,0.4280134659156273,0.5835595095814888,0.4428724580323115,0.07294216941488417,0.02543242210209544,0.03284591725752559,0.023829113687727204,0.044811378598224524,0.03314564433085965,0.0059965575009050505,0.10798584596690308,0.08032213749822319,0.01973942704354887,-0.03192963145574217,-0.04857301606224399,0.02809095816657264,0.22466566963644705,0.11911452113894408,0.182084229645111,0.3555272887045816,0.5963902516785882,0.586387634232139,0.2696429491351286,0.019810118051547716,0.009077033737294635,0.011781070038313404,0.017268080190432192,-0.10048067051580555,-0.11873001806315912,0.37608783614683333,-0.0613406299581217,0.064618181405486,0.1312013686061579,0.1930797652949187,0.45124543605610756,0.5854933373426415,0.33390306979746814,0.024192232807294177,-0.005765360696444494,0.002904646823685799,0.026746083333369156,-0.0051006920063111985,0.0500619448601344,0.12476066495075082,0.00012106050574259027,-0.03798185368793689,-0.002846905008374095,0.3856000243961021,0.21412391761416705,0.1369459276716945,0.16035831034885403,0.33539569303277605,0.5324266954630346,0.5572431466613333,0.18806281663907642,-0.034332518215786596,0.04532213059968924,0.019499920768894494,0.013962644027127647,-0.016519036903908654,0.06687663776155053,0.05760497307004058,0.005244705417992043,-0.060941482942270045,-0.05654814222630158,0.3732291396795866,0.17052883851413894,0.09550677729375297,0.15977868659558073,0.23686098071633913,0.4213241587989067,0.45124421113886404,0.22214220884523275,0.046977589709567384,0.016686379639872993,0.01300034948667675,0.03035531776701584,-0.00017880395069770093,0.04933719200751714,0.12714474187938793,-0.017802956250586182,-0.04062420048806426,-0.043382452307885254,0.14346513079479786,0.16560897198060445,0.1316480194016202,0.16444980031993695,0.32424090488702534,0.4891307689972882,0.5401294596427503,0.22377357479432547,0.04456857155529255,0.021375236139821275,0.024555555752567543,0.05023567718215592,0.0219853168658935,0.09410299814682802,0.09148149806027996,0.005167067468997483,-0.047062816276998716,-0.06086039583554812,0.48908084547787267,0.15478349445563946,0.11238748304564186,0.16115510589990656,0.2457025652389717,0.45938568803226026,0.5651860189215029,0.22135986835508478,-0.02913603547336493,-0.04434059769017855,-0.023304601092433666,0.022362511776425363,0.024701446760546385,0.10125509092097595,0.1956729239955212,-0.001375739624546556,-0.0306094123549235,-0.05382846874154807,-0.08747590593253819,0.14997496239524652,0.09743854749439446,0.20211933164972065,0.364146750853419,0.5728934888162738,0.5632996232924127,0.2013874299181748,0.1070364035158177,0.16682261676626545,-0.009359779042693861,-0.06888273154647982,-0.10267819283154145,0.3171060280214899,0.250403624250171,0.15603231357113778,0.23547552415748954,0.41208339165761315,0.6595105809258273,0.6948022219500107,0.35931328747318764,0.1220073367355027,0.10817108887228032,0.17027893650926137,0.13347518889699111,0.10079396189731912,0.1827661891124004,0.23258926264952298,0.03622414910123855,-0.0031570247979357162,0.02834631916580112,-0.17593611589952238,0.23919356998638563,0.25482056612192583,0.3435446951820012,0.5242457290487978,0.7974207906303493,0.7565234961205481,0.2830520156745293,0.14804106767590927,0.17905010244058295,0.1876754424138396,0.18649348676771285,0.21419996702325805,0.30537815813885777,0.19253417021121985,0.10929481741848894,0.0539616603727274,0.6362435316956094,0.1505772195434408,0.23213058587812688,0.32680508593844143,0.4665141251423722,0.7334751814663578,0.889688229562205,0.6183050558095609,0.12681324754229314,0.19782696526348756,0.15074086602178743,0.19013557012263055,0.2373794902738382,0.29026606581654446,0.12045372392540292,0.038209096994835885,-0.0430847872726962,0.5817860777603623,0.04519312524492137,0.09184157910648262,0.16954559390084845,0.3109227040152987,0.5169066751361076,0.6824975092808705,0.3425714840126491,-0.006385605890235491,-0.02049977876872085,-0.05412997954349465,-0.014928205365167863,0.008551628747919954,-0.15519901903499872,-0.18986849205307707,-0.1951198864912071,0.3296842569605196,-0.07164368124490288,0.0007651513594935711,0.03686254370775874,0.18613711674840477,0.40749607255859177,0.5290024745408884,0.19708472532666668,-0.03221717485726882,-0.03699278485164276,0.005497555573929762,0.13542408932484298,0.161260556302601,-0.026047644436907682,-0.05426574657211565,-3.8198774112038044e-05,-0.09019585114563262,0.24364758083978358,0.2379949976320435,0.3320898066459616,0.4998464394189365,0.6989734250161073,0.67748906438453,0.2692664608992445,0.19312042852300715,0.21810236875602698,0.2378177121637014,-0.1861952355264775,0.297564750152527,0.3797349291519463,0.46279622360933376,0.6664999118100895,0.883493715354245,0.7648095191253091,0.325223745837306,0.24098066486464909,0.2598440368866073,0.2703356543719362,0.3607477107541345,0.42371087170086946,0.2618841777510136,0.22112944025308143,0.19528136495570922,0.7548820472584357,0.29378337896258644,0.39323206914309894,0.5078479829916613,0.6337609283945369,0.8856068097010235,1.0,0.7614376073452862,0.46907781484267386,0.38120161181044593,0.38725974534851726,0.34356700942404356,0.33571419363735133,0.36367392681784894,0.4274171592255206,0.3346388076823395,0.17043860121286145,0.11181925190756113,0.3621447447495605,-0.14785912920691507,0.19614757313935696,0.2537976973157306,0.3539883364659211,0.53563193881209,0.7133260423269392,0.5066031893600405,0.08787141933732802,0.016745066751522705,0.04963970190498188,0.05494937939577214,0.07762158738534031,0.1681661895360102,0.08807670290334649,-0.049981667634379535,-0.10456348891105584,0.23217721919660692,-0.3636949869743958,0.07503739954216075,0.14998118278017014,0.25294875377322745,0.4516669131565681,0.6510932134995859,0.402108168080312,0.04887133084290412,0.028170464526172348,-0.026647091679834208,0.015502130514027488,-0.020241632730308025,0.1067675652752903,0.05938753153213856,-0.08546979891157082,-0.09949195947667488,0.22895368530567603,-0.12436654968945594,0.06628360348527763,0.12978849328076789,0.25022914865849066,0.44529015093566243,0.6211599709808605,0.43781711618150654,0.12117618719412898,0.08748897579023994,0.09830691919285457,0.11277602813824503,0.2015366811328308,0.21538308085751728,0.03630763456531215,0.029042972314333823,-0.014389578484862631,0.12562967032732153,0.282964071989694,0.18046520100592103,0.2520350312755126,0.41328074394242226,0.6327743645037336,0.6128042032604696,0.2206000791909257,0.08740666599709525,0.078998489483745,0.07711202608964456,0.10859597240723212,0.17079240772245277,0.21605795764724145,0.0,0.0,0.0,0.0,0.0,0.0
-0.1498324521900981,0.21778896506536155,0.4058723785153147,0.7084437921883712,0.6915702092767405,0.1508652372657722,-0.02313822056911196,0.0063624765518638495,0.02145747508249721,0.05454088504078693,0.03989760544392546,0.12689760536450628,0.22718474923302018,0.0011549148495159935,-0.05781313109917624,-0.04436634547878501,0.7927303743784093,0.4743274114660593,0.28905902424547436,0.40453480869619346,0.5578777777289627,0.8437411360809085,0.9410694173342834,0.47094372135457296,0.1820662308712113,0.14580661555621638,0.16750702660131,0.1852077379851648,0.15581532148125096,0.18654360095206068,0.31133824565327234,0.18082669267415344,0.018566831926923263,-0.044647766180538236,0.5458580163341975,-0.24380742825499685,0.1705073872558356,0.2901290264110993,0.46284684449303576,0.6996703805037111,0.9329937953368553,0.6200703934773677,0.07754682871177214,0.008842928736542363,-0.0001851825193275779,0.03881746169544611,0.02584476192866335,0.07943474221160177,0.089832959861628,-0.03416274190244493,-0.18093326423085218,-0.11055974257113158,0.6860650069931273,0.1728821155659874,0.0793950434956325,0.15908841318118833,0.3305338841831158,0.6233039668093873,0.7698121372553529,0.31033842708820913,0.004290413376319343,-0.01751593724147302,0.03361126644241778,0.05579496456151077,0.10752857949709912,0.1495106031951237,-0.00032233403471921385,-0.02782869026245668,-0.044635246879195865,0.5709365182669137,0.1183394608341736,0.17424498858333395,0.22798984559387614,0.37674611459583707,0.5922182884264597,0.6995742251326064,0.3815319499300199,0.09152846838535292,0.0716869627124322,0.07672916146290412,0.11765502298333289,0.07245081790154524,0.13292557955474774,0.19341614532877605,0.023421142550138597,0.02920404884495721,0.06453561182644825,-0.2614574216889733,0.14456601837956887,0.24398554830153033,0.32045179587956396,0.5107649656724237,0.7372672217323579,0.6043869439793416,0.14137382317421274,0.031220767319765287,0.02928582383665542,-0.00373161036533,0.0013495605877237745,-0.0520055515738154,0.06355398129461338,0.08420960477941386,0.11247932435082773,0.16534971093610293,0.27867390839653755,0.5798098401946833,0.7017950907831522,0.3751445447703168,0.06901792594999924,0.07710872382783751,0.08055708911383185,0.08658977592513825,0.09928861303792584,0.059844545181767586,0.18648045773588562,0.1420962536511028,-0.023947274518695327,-0.09751706281957916,0.4153847350850717,-0.15403738365269232,0.1850143506629838,0.27599971601606454,0.399424372938196,0.6395743945335185,0.8593594689156624,0.6040893082758938,0.15048527429278985,0.06864966257657429,0.10261794112245838,0.09862221771369072,0.10445798281806544,0.14402186237419354,0.26825285400463145,0.14288522223815378,-0.017000019305829235,-0.03940253043753163,0.6165321397334877,-0.024584763144945596,0.2330640930761232,0.3159382757011997,0.45987537860288613,0.7324794592718952,0.9350112154176068,0.6045877877365734,0.0962119584154673,0.023048788465971363,0.05742170939406614,0.058753129483561824,0.03991787059163921,0.07542310288843833,0.12279955791012236,-0.08211125004693126,-0.1311694984323375,-0.17029243831145682,0.5036362301923675,0.3098822530655074,0.1427625611268855,0.24347520111912144,0.4154999663204436,0.704129217111002,0.8034100669812668,0.3727963606720062,0.04245203859113203,0.026204390888143997,0.016833108095228397,0.04138049731620452,0.09795917398343883,0.18122257181631674,0.044953207027938265,-0.05897493757487059,-0.11955853166084396,0.5276431446417957,0.0965557421807074,0.17423161830049844,0.26667762069010525,0.41478301248120725,0.7094336320421278,0.9034770691686811,0.4636058139872945,0.09073294206365834,0.034215772043587125,0.051607841311341995,0.08001475406166808,0.12980923198178554,0.15224657265375866,-0.04009202006155306,-0.0783600635639878,-0.11286794033736257,0.591893415074459,0.24450546541093654,0.13329210427788316,0.2519760668747106,0.39837566676632347,0.7278401721382124,0.8425953418802289,0.3646737877777772,0.0635401889473057,0.07880953337636112,0.009238611897096434,0.08217388003299637,0.05862905221263584,-0.026809105722092753,-0.21533711464800373,0.17163226425358943,0.23981654483438622,0.3238117972643509,0.6145082118694517,0.8855162168736619,0.7928380244040039,0.23302739446104914,0.061399049863951005,0.08362491944855172,0.12078478557559429,0.08200464402131719,0.14463766057674285,0.22284005316017583,-0.00507187512010424,-0.039433643998895804,-0.09407245910468166,0.7441851038281881,0.19211422882739415,0.17134193949409124,0.3133385220797323,0.4357291413792996,0.8262435174623487,1.0,0.5387766856117214,0.11581044974538932,0.0889398617025502,0.06037414177636761,0.12003751383677565,0.09685852782107222,0.15685795137190417,0.2632343630446446,0.05278411590068128,0.015411215989423884,-0.030650612298236752,0.7129799587557077,0.20109542222243168,0.16568519929718625,0.25643486980204144,0.37176091923017096,0.6650993301092153,0.8210359132176179,0.367870382856316,0.022842326179483483,-0.008738780957627921,0.016506059764597996,0.02622569857214151,-0.019228062268153715,0.008413952818275436,0.14182926039987168,-0.06364318886732327,-0.1316344971255414,-0.10272922844960071,-0.28132488400112826,0.14638301488097918,0.14052962656894147,0.2627547147648825,0.46151544230556407,0.7377811849224267,0.6812154605805751,0.18366671587226438,0.0526649593183237,0.07031047593341914,0.1177557478899244,0.08778763926192147,0.17978337445479126,0.2852709808052273,0.06245401315592182,0.023272473666601106,0.01648624538597755,0.20184837568688563,0.3529644597622402,0.2327477068760622,0.33898448256639174,0.546530070494698,0.8585345796428591,0.8011213147549715,0.2529102663132602,0.06700495897876066,0.04309259694900662,0.08022696213556146,0.07997723903036598,0.06308961582360673,0.13018075371598914,0.24162129251055298,0.006223599459003274,-0.08390478060079115,-0.09952587128848507,0.3131168196501644,0.2899156538897463,0.18840844012462338,0.2846884032974886,0.42247597500321776,0.8250340357784538,0.8310691590678517,0.2660558846565824,0.06579551114204686,-0.02379932795601181,0.06361052025647805,-0.006245703893037358,-0.05822642422500879,-0.08353471437678535,0.04235031354655424,0.32320781712649255,0.1659863612615458,0.24581884122810915,0.457681276485574,0.6528395938846794,0.7243795818526065,0.21131052492928007,0.0019527140924698908,-0.004012507512025054,0.025803410822110538,0.012150484783250365,-0.0037861851006839027,0.05030921424076172,0.06877287895457226,-0.040537799371483996,-0.10216690358665392,-0.11423231048391332,0.5688415759995131,-0.004734426406122879,0.11465678976745809,0.2610189205371228,0.3695878011438771,0.6630073232574484,0.8192882240875329,0.42493231945883214,0.06199316965899375,0.00530235669358372,0.047006940416880416,0.03648426467209188,0.02907766561768193,0.11880792441669875,0.1632275807117447,0.015486248529008224,-0.07159845750709261,-0.08576497565757052,0.6974894163690284,0.2581363025635134,0.14486242709986197,0.20327982770194572,0.3591851429338241,0.6688716809917286,0.7999679663537895,0.31790219610312936,0.03301504699406887,-0.0006120681984528851,0.023628173150405402,0.05070214422968663,0.04255652188517756,0.03094613017341206,0.0963656799700835,0.19321437296697558,-0.008059457685383818,-0.08295193622838368,-0.10347853268446228,0.42499612776233275,0.21637412751175467,0.06591490311424644,0.23053454783995456,0.4115116899234837,0.7141949532397607,0.7637623099637335,0.24985087367316994,0.018963787106102102,-0.017263611844016168,0.05343282440941077,0.020053599338621417,0.005861696844950675,0.0004777919755514631,-0.03603598154728523,0.0909638902102313,0.10727603165317831,0.0,0.0,0.0,0.0
0.018928936203277683,-0.014111821559009585,-0.01738920891330161,-0.16359929454608743,0.34533698705936233,0.23549255418925133,0.3409533151156603,0.5215696503882494,0.8967553379920806,0.8757514284430412,0.25679605497958163,0.06396242807382407,0.07610215726311062,0.09906130290344006,0.11899676916975406,0.0950701943020463,0.19374861651512582,0.2208761500164903,0.1241915294754442,0.024129699843244087,-0.003174125660854602,0.4908045454900874,0.027579188630094648,0.20952554478633081,0.26244114134578944,0.14098126504631475,0.12754409279717668,0.11448726969609188,0.1353712187187338,0.12754365918893143,0.12144898356381584,0.23612916813384524,0.20577705708151986,0.010305944027496015,-0.04055118309675458,0.12344654448140589,-0.37884877336864226,0.21967056203920787,0.24120020362265296,0.3948953857799809,0.6503226390415625,0.9458987071947336,0.8002337904552678,0.24621834870369794,0.0933576264359359,0.06478916264632757,0.10376123620894297,0.15006093402332177,0.13136178608093244,0.0791626129482054,0.15958934472576697,0.25670677130882313,-0.02263664450207216,-0.006338544008532052,-0.026292233343064568,0.49789439605774377,0.3864184707964076,0.3030790272327428,0.4098473053815056,0.5641366432814297,0.9618312230044518,0.9598979956273966,0.43615974148787195,0.17760447273960758,0.19286880094022307,0.11716078926104187,0.10516382773226075,0.13678688509812909,0.060425419170023545,0.08059752404442744,0.1993602119760988,0.20488844802007955,-0.14717595904511058,0.028089013090464472,0.03815572068051734,-0.37412642237545846,0.33374318229912103,0.24585525337295414,0.4164157835767375,0.6336440112345768,0.8705674453579445,0.9060557302929619,0.30751512095541783,0.09764234831918686,0.10305661484526656,0.10192448237236992,0.13613014129318787,0.11085298521874629,0.10950643062233692,0.29060417594892496,0.1485187972823673,0.04560711944357754,-0.03231721693107811,0.6328788757679261,0.05051014872304708,0.20504120721804123,0.29286111955290944,0.45828968205695997,0.7425113594806101,0.953791906750041,0.6519030417295806,0.20541657178213896,0.15698270663000696,0.13627364277482448,0.1785745248443507,0.17588987968445363,0.1524284999879822,0.2531825932241302,0.2452168159159062,0.07313708858073886,-0.018394636205654617,0.0740798128503913,-0.47626097175340537,0.2952973845456697,0.34375280231240984,0.45336133960774583,0.7020141709411799,0.999748104594623,0.878669649975257,0.3446731509672536,0.14842735802057735,0.11066405873686735,0.16978381157955527,0.17005101129485997,0.11146826503068345,-0.05891395116679538,0.15034882242213604,0.40805831176879226,0.3075685680612973,0.3212920816486875,0.527446936496608,0.8907331387491167,0.9318186891513229,0.4222800669107056,0.10653909518839054,0.10986619529791566,0.14326535274614463,0.17834336631876155,0.13306286402007778,0.16280112895131418,0.21389834992682735,0.07833918764761617,-0.03901121077545625,0.15704056563827548,-0.3638208213012421,0.29079155578861116,0.24822085815327996,0.42872929275604826,0.6779783023484574,0.9547975705944848,0.7694848946648886,0.2784773588213682,0.12653667884057082,0.04752271279164209,0.16464233935974598,0.15015109539559007,0.13417653481852967,0.26276545372873816,0.23274330713582314,0.04064540756321759,-0.021782053278841286,0.20500175437227736,-0.2802354074665407,0.24116938246891081,0.27241318174919144,0.38283005561305095,0.6728050892578966,0.944394629602613,0.776771758452324,0.22981940491332514,0.058705001329222316,0.09869610874774602,0.11861132852954943,0.121569534142488,0.06673598202394572,0.13511696144560698,0.26961070758093014,-0.040605018626989356,-0.06805522339176968,-0.06261018693415166,0.5851998074547515,0.3269992081603677,0.16333884117548927,0.3236865005618361,0.48134767137202283,0.8079912164525903,0.865132558338047,0.35548649520585623,0.06432301914780685,0.024171548443386048,0.0734064833101672,0.07289774530085283,0.03994612386176591,0.14759110527136454,0.1587591146019121,-0.0013094504529759159,-0.061634269864832274,-0.08174779600836789,0.6817447568038616,0.13848719787840938,0.132434703549253,0.20537234459913445,0.3611104115562276,0.6865190007913243,0.8697744061450058,0.4730738925961393,0.09963947947604704,0.0052196706015432024,0.06140612033703094,0.031119200827935692,0.0666266304907942,0.20702558758843242,0.18339566264014395,-0.02850121928798837,-0.05040509829596128,0.12113468555426342,-0.21505915008748025,0.2343337520613454,0.2493718169975038,0.3543897848349872,0.5597822464726409,0.8970533158387051,0.7342559067272605,0.17487290390116203,0.05020406741277334,0.03838705557650742,-0.06719381893598474,-0.05369723023162627,0.02627595314472385,0.2990568410020457,0.21922192727611506,0.29933356718731347,0.5217480377529444,0.8688201193235946,0.8286900289204034,0.29649171971471366,0.08690763682349927,0.02273396569721561,0.09358029626253925,0.11808922412937364,0.1772366736293886,0.26409193070359643,0.1318852406763283,-0.08407464114903519,-0.07682056464049604,0.4810417287969582,-0.13018964364288502,0.15700891452998983,0.32169473844006724,0.42133085611048243,0.7300290257283114,1.0,0.7096962203677929,0.21904821534717753,-0.013036209388202633,0.19859499547504375,0.12334943712650574,0.1647601829962108,0.19407818085421116,0.23171696673542394,0.06863355593975518,-0.06260943427447388,-0.06926879820048013,0.5570548680867248,-0.049387919076866016,0.17546621868397336,0.20547628820141545,0.36873807885691634,0.6566038933964214,0.9046851295567763,0.5678944188274151,0.08679508403024772,-0.02883503089725529,0.013343541526140762,0.08596514639008229,0.058549280840793874,0.16192963446271105,0.212327614179344,-0.0103752970413473,-0.05627462738949381,-0.012591637554277484,-0.24652646571059678,0.27775784526574876,0.1735140519761885,0.268949061009027,0.5485092858305102,0.8512833379299239,0.8083589176888772,0.2394367766712212,0.048849665041174266,0.08501830003003259,0.06969538474856701,0.1240173677997765,0.24695170787583223,0.25265489081383463,0.07572037511397066,0.01966888792844753,-0.0490868542971412,0.6803366517452556,0.15184449711160802,0.22288793874840274,0.3217342045901699,0.4362717684756189,0.7038969944403631,0.9622928938200259,0.553888743468641,0.09643887758606495,0.06752970574135847,0.09545014091045223,0.1255042699089304,0.15560089634909943,0.18780123795764203,0.33214481697200376,0.1913069635236681,-0.013927622940240603,-0.04616303296432664,0.1551476097301002,-0.3482509463561507,0.17336843535609783,0.25642304461721177,0.3868362652619761,0.6501077680161162,0.978072748923599,0.6951808143410624,0.15963796062518268,0.0030552825471008697,0.14791121747711378,0.22527909943940053,0.0,0.0,0.0,0.0,0.0,0.0,0.0,0.0,0.0,0.0,0.0,0.0,0.0,0.0,0.0,0.0,0.0,0.0,0.0,0.0,0.0,0.0,0.0,0.0,0.0,0.0,0.0,0.0,0.0,0.0,0.0,0.0,0.0,0.0,0.0,0.0,0.0,0.0,0.0,0.0,0.0,0.0,0.0,0.0,0.0,0.0,0.0,0.0,0.0,0.0,0.0,0.0
0.06014684759922379,-0.03940738402854753,-0.07709698138689862,0.7103221501048333,0.4424544974004913,0.2181292320920514,0.27905621981807843,0.46014631993596555,0.7538487728687552,0.8814119078858959,0.39251299433548,0.06657031763115137,-0.0032689620919833795,0.010338569849005582,0.029332440465837,0.06413336932776821,0.10106337907996898,0.13975232632410603,-0.04640906624282496,-0.11285916546628084,-0.0786682624034081,-0.19524911260977695,0.24885597280059352,0.21420169883608842,0.3374496489965782,0.5819396478271774,0.8782789658499938,0.8700474398608019,0.2903807990740416,0.12229791745432224,0.09784968251375258,0.15374420758262614,0.14540146958796715,0.12354683782456707,0.19465533205200383,0.3216890922808189,0.04210801717170464,-0.044494992213985285,-0.04421912021916811,0.45370062700067215,0.3313940617497609,0.20320690793138516,0.2997048275452151,0.4971678097031888,0.8319318803233785,0.8939678798378149,0.36963669007271616,0.052389315694770976,0.06990750219001564,0.09379867737456721,0.14060290015760554,0.07975069989550046,0.16984550568555734,0.29614265872172096,0.014429904092225672,-0.04406372835803754,-0.0599067129279306,0.7927208955096523,0.398542561565985,0.24051505238768106,0.32654605839895395,0.5016070932833144,0.8203613932668995,0.9152055371565232,0.43759503424905266,0.0791749575258095,0.042783269494854025,0.0582785278951887,0.1292354459573442,0.05636900748415975,0.055823782248192906,0.1818881235774824,0.11550241653073798,-0.00020525002112334873,-0.053399512072706386,0.06811469373244386,-0.3395760865482318,0.1561126893223578,0.20747254669318355,0.32885683798619214,0.6055198116377707,0.8684204145455697,0.7413389697179203,0.1897473199999516,0.060329245488671066,0.08296162878865844,0.1267171546172682,0.12145398832285655,0.17363247031574633,0.24044519404785256,0.08989228124950698,0.011868120554333592,-0.036437214437755355,0.5783644173159637,0.11433885813823774,0.20910097302897981,0.3141308985984421,0.10786571424952064,0.2352006982348817,0.19077441423899416,0.004787553549902915,-0.010571140353653722,0.037140661667903155,-0.4941179710292818,0.27712570558575117,0.22699651512450175,0.3392518399348034,0.5783152192427865,0.9039326579050886,0.8251684112998712,0.2823383608946718,0.07431007541701903,0.12305022621231694,0.11565416797525102,0.14961135433132206,0.12818353911299213,0.18878331348818994,0.2674019090924593,0.041779477990471096,0.015839461420352793,-0.012546462997988825,0.7630356156583313,0.4416905341081176,0.25497116823224847,0.32121903524808254,0.47462729232892226,0.806198906788176,0.937192582602193,0.47699355754757594,0.1280494617870963,0.09716670077966137,0.14227058110669644,0.1446561136705348,0.10071515151572265,0.12229605775646574,0.21478145494998294,0.24651532954292757,0.0649791625061094,0.00034356720369615264,0.060505682318550934,-0.2411971553566492,0.29870772554784414,0.2576932911714483,0.41123460601679607,0.6111475793220219,0.9189394194252521,0.9137835938099973,0.3633212191104325,0.13940599688705868,0.17548507125532933,0.13452563858710695,0.14276167064767165,0.16816733051786772,0.1373528841833492,0.31646553960496987,0.23071131735600162,0.0602716710398284,0.014820648786348912,0.14289542247447073,-0.44069581284974896,0.23651086875482108,0.3063597711418322,0.44650802697953773,0.6566147110820392,1.0,0.8242178764138274,0.3127133052634182,0.12622229755027553,0.08490748034033066,0.11755416569992798,0.1018727017956402,0.11411612880191983,0.10788614708623025,0.2087108569705908,0.08640344347707896,-0.03279921674838793,-0.06149710298037688,0.25892053225665324,-0.2203569926694365,0.15628217288424343,0.21846619531732034,0.33057639950466067,0.6066558391387098,0.8575357975422403,0.6994577233823417,0.19753923627904768,0.036982528019136665,0.060258903197127366,0.06487949966200669,0.055890430115961155,0.1537947162152319,0.22012560479981574,0.04699736178525594,-0.035755464805223056,-0.04934610009404035,0.7565289158380287,0.41695450786942073,0.6587658465894428,0.16122860918007426,0.042953953379943656,0.049654225503165395,0.07307157809059411,0.08299844387532228,0.14382269200973122,0.25087324456003424,0.08943426975183827,-0.019297335493562575,-0.02352533257438277,0.7072732365268523,0.06861794980554367,0.19736969518536596,0.28101420919024367,0.40875363715819724,0.7316536543600602,0.9267198438399603,0.6385829434549503,0.20137533886961242,0.0797900100792952,0.1065614255467605,0.12665276984356985,0.14904070846517087,0.25068076617791724,0.2988343672716391,0.01688974076419658,-0.03658975595025012,-0.032471595199771115,-0.20744118669225034,0.24489072321414707,0.21959434734620414,0.37093284327911796,0.5974808959503795,0.8826957813366149,0.8539487318838965,0.2950673033428786,0.05452715155046101,0.07261082396047507,0.0845830782297944,0.06633413173675967,0.1689178681709691,0.2545649162509592,-0.007643021852965178,-0.08071802747028872,-0.08085007192778257,0.3192638024699144,0.33840092207591566,0.2017212502977025,0.29084379532124016,0.510810749287745,0.8339229829440298,0.8551746454329893,0.3249374135017102,0.056432658582747375,0.04928429615407895,0.08371124818005446,0.07409277599786208,0.20204985440838558,0.17946119754659315,-0.001964563764333338,-0.05054669721287051,-0.019896944338365613,-0.4038703868638088,0.18768286247009838,0.18082937625489787,0.29926970031566885,0.5854698315825244,0.8962994656251912,0.7447714295998924,0.20067848419815795,0.07331144746168126,0.08284953409179144,0.08686929671887626,0.227813318626447,0.22729831878619705,0.031020426564400575,-0.0376615177578039,-0.07153842085702972,0.8005443989536509,0.3410354355810775,0.17677953880670272,0.2588714103209535,0.41215723892570033,0.7851937882711308,0.9028508932199303,0.3914241816843908,0.07134188483318633,0.0724449557441159,0.07245641346252463,0.24150063585641782,0.24974664051760337,0.014102617839471242,-0.09604723333933675,-0.10876502410467168,0.04285174057635337,0.2847213853843327,0.15646585682345143,0.3227842632053355,0.5229186644407235,0.1259989360612897,0.0013770128457679847,-0.06998704066053092,0.6276747754962769,-0.006875511754572102,0.11251385423530044,0.24527130542069844,0.4237767188766612,0.7455107990185255,0.9565449133646475,0.5015349836647589,0.10451339201349082,0.0348746765250965,0.03975770376435544,0.07023964352266344,0.19681117855355248,0.23315122417810116,-0.0056235689189866956,-0.0720805312960037,-0.11441629860924475,0.03749601251921647,0.3458991990151989,0.19395130430302712,0.2643319572402636,0.48978731993868974,0.8257220636941637,0.8257760131986861,0.24896206155252026,0.021809781241311825,0.04432119470801044,0.07478435260570811,0.12002586356055113,0.18687196227684885,0.1289246652405054,-0.029007334598747245,-0.07724054361162175,0.14247706830864965,-0.15719346881352791,0.14774691038870572,0.17142117675382035,0.2541001869627487,0.5572930528182879,0.8339113007163521,0.5969572075219334,0.13705672634417465,0.06350917674666282,0.06627148446765455,0.03923873529942442,0.16620764654240763,0.28784015794931983,0.006689314441165307,-0.051763771573702204,-0.08066937036576179,0.8141393660237993,0.37136558410551945,0.1732472867198412,0.24244877002202356,0.4196354574673169,0.7526471565583529,0.8792865422952287,0.4190088538548165,0.05447858439220824,0.02343415178948475,0.07624749845504483,0.07658960385039502,0.07696298990212198,0.1489328278879536,0.22270972138584932,-0.029386926489162326,-0.12360107402936313,-0.08008536416462815,0.49177369631230916,0.3118842837656781,0.16363544194778495,0.277946398414048,0.5105894741189255,0.0,0.0,0.0,0.0,0.0,0.0,0.0
