0.48496705274911744,0.5788513444785774,0.57683695871886,0.5326120690317094,0.47235601991971005,0.4085303773417013,0.34711965919911897,0.2907060979835518,0.24012446878770977,0.19546873539462792,0.15641179293213187,0.12253980744814981,0.09336216222897534,0.06847682113933834,0.04739323513610175,0.02976333675402222,0.015097144780099249,0.003040183269037427,-0.006317280003232664,-0.014584253455363733,-0.020288392352767456,-0.02443617051977022,-0.0272425874609667,-0.028826539245608025,-0.02951283393804729,-0.029497351235466016,-0.028799942872754176,-0.027417582679125262,-0.02550425336237979,-0.023165445743257223,-0.020567035866294797,-0.017719550472925814,-0.014670853365481382,-0.011473721276399245,-0.00815229167212784,-0.004900255102722073,-0.0015962002160875841,0.001416281409637012,0.004832521703529584,0.008130113499909055,0.011264139319339323,0.014327589477040723,0.017223539608413583,0.01984065395569013,0.022232704623548386,0.024515025460846145,0.026725691269830095,0.028861642577688067,0.03088441048530831,0.03274649113712929,0.03448196286029569,0.03611642319146841,0.03754652625561113,0.03881529789392835,0.04049614715816353,0.04103627691453206,0.04198265583215017,0.042842934206349034,0.04363963642671253,0.04437958573251492,0.04484626057361243,0.04502453446033729,0.0450519184623728,0.0450613966001637,0.04499558248033431,0.04484389879965027,0.044655483453787795,0.04435879617507425,0.04401141801051155,0.04364059472715695,0.04322316289170485,0.042678095051888264,0.04242001637516172,0.041294282622242405,0.04083789630381783,0.04029759455039752,0.03972293659537537,0.03916958967646968,0.03849140545831106,0.037586492998766236,0.03667168505478562,0.035804168372799185,0.03495605498990425,0.034098130741938674,0.03321219169353755,0.03231685998715198,0.031384704487568006,0.03046040484158464,0.029591925313731476,0.02860825320184418,0.027934761661317874,0.02658019978556918,0.02591407429376204,0.025234524759966445,0.024545077144745176,0.023883259853462773,0.023157994359319478,0.02230016594225634,0.0214490441331533,0.020663197537719624,0.019900422434793726,0.01925722061776388,0.018700076195605566,0.01803276416698709,0.017450441347724128,0.01655881045023585,0.016220509877391695,0.01583945533694714,0.01546649118967161,0.015132306941748698,0.014769430841195634,0.01424722055152333,0.013695943434107412,0.013238338941505905,0.01287461653697389,0.012584843834762568,0.012330382394253405,0.012111534984809316,0.011919652075644318,0.011758929357996254,0.011674227829669705,0.011537985836068224,0.011418464407772597,0.01180775004976183,0.011262578810091168,0.011337496924530007,0.01142570640907186,0.01159260031697761,0.011834110157707328,0.01195280957734286,0.011898912530189688,0.011839103510339778,0.011849093469222437,0.011915054090171526,0.01199499189082074,0.012086718333047189,0.01220232465898935,0.01235154731635869,0.012525706854560732,0.012738145288304477,0.012962851074459596,0.013145929854040927,0.013611131606324309,0.013292618300038934,0.013725428650208107,0.014104573651830387,0.014468460074849651,0.014810110539843725,0.015086052346829167,0.015175877657286254,0.01520718096775368,0.015287405238072713,0.015413501276979463,0.015521542894047585,0.015580795063456637,0.015593426588679593,0.015576441714643752,0.015536442095384463,0.015433203900708639,0.015309596198493456,0.015111474145303843,0.014975048299056217,0.014174921166629455,0.014129126990068954,0.013977042032226125,0.013728968642429987,0.013436437779835341,0.013018986010722251,0.012345606780804583,0.01154076287890114,0.010713368430158337,0.009862150535812294,0.008955956039397668,0.007963869268800853,0.006895367881850755,0.00571457609053214,0.0044590031767209595,0.003089555556533537,0.0016127177726725154,3.725328089808331e-05,-0.0017823782927944463,-0.0036495709491074254,-0.006083103148324257,-0.008005965475619858,-0.010123002195317858,-0.012421022448876341,-0.014794099259131593,-0.017337602995505224,-0.02019884247741068,-0.023277696047491993,-0.02642050003956291,-0.029617071319356203,-0.03290347197285166,-0.036279108641932595,-0.03973452623655662,-0.043247645708019034,-0.04681498324576713,-0.05037416864796245,-0.05387587879072761,0.6468673126617387,0.9256042946706822,1.0,0.9786649100692498,0.9153208139609308,0.8361786625586256,0.7537297146584474,0.6739863618858921,0.5995569844599221,0.5313008708671075,0.46933495402991104,0.41335364233357524,0.36296324575235206,0.31769200678961174,0.27715554640996887,0.24087985102094864,0.20853234521434333,0.17963757240110861,0.153854687414863,0.13128676610831277,0.1103368540670603,0.09248809345451804,0.07674287068683534,0.06289265666215264,0.05082232056340115,0.04020791706931803,0.030851436592980924,0.02272789275094963,0.015832220559910133,0.009999496523924754,0.005110605202659611,0.0009835730304310695,-0.0024104505257121498,-0.005139611845891516,-0.007278424604830149,-0.008873668679206246,-0.010142075582488322,-0.010985206395180042,-0.011769127155072522,-0.011820088437153221,-0.01168095476268184,-0.011415953895663297,-0.010950255464175784,-0.01039780293980106,-0.009885839275072606,-0.009375425651100796,-0.008765023146815354,-0.00802935005879714,-0.007183303706359615,-0.006276294418403871,-0.0053659407582158,-0.004427528436352855,-0.00344415045702855,-0.0025272502111379053,-0.0016413915969257671,-0.0002203274806966198,0.00017633309440813122,0.0010889702999943912,0.002018850233602138,0.002982317555451669,0.0039802198958736315,0.004790263382374948,0.005391751199767779,0.005916824372201301,0.006493295038502448,0.0070588005991482254,0.007597980385264731,0.008155378610798092,0.00865504755593762,0.009150343316071362,0.009664465225385865,0.010170377723078222,0.010583351110031699,0.01131447357077687,0.011205724356826745,0.01179088499737861,0.01231362208424317,0.012820569547172006,0.013364609240103423,0.01379694195572328,0.014013154904855772,0.014227682469726317,0.014495430888730303,0.014786343910943515,0.015069145627869629,0.015323671208364996,0.015566677044027533,0.0157689556913925,0.015973494239922847,0.016226642475556073,0.01635584565208876,0.016785001707291185,0.016521445778992852,0.016933326379570363,0.017317475170076344,0.017676155101795783,0.018045671156063373,0.018333755726659753,0.018470134202049848,0.018592940342830665,0.0,0.0,0.0,0.0,0.0,0.0,0.0,0.0,0.0,0.0,0.0,0.0,0.0,0.0,0.0,0.0,0.0,0.0,0.0,0.0,0.0,0.0,0.0,0.0,0.0,0.0,0.0,0.0,0.0,0.0,0.0,0.0,0.0,0.0,0.0,0.0,0.0,0.0,0.0,0.0,0.0,0.0,0.0,0.0,0.0,0.0,0.0,0.0,0.0,0.0,0.0,0.0,0.0,0.0,0.0,0.0,0.0,0.0,0.0,0.0,0.0,0.0,0.0,0.0,0.0,0.0,0.0,0.0,0.0,0.0,0.0,0.0,0.0,0.0,0.0,0.0,0.0,0.0,0.0,0.0,0.0,0.0,0.0,0.0,0.0,0.0,0.0,0.0,0.0,0.0,0.0,0.0,0.0,0.0,0.0,0.0,0.0,0.0,0.0,0.0,0.0,0.0,0.0,0.0,0.0,0.0,0.0,0.0,0.0,0.0,0.0,0.0,0.0,0.0,0.0,0.0,0.0,0.0,0.0,0.0,0.0,0.0,0.0,0.0,0.0,0.0,0.0,0.0,0.0,0.0,0.0,0.0,0.0,0.0,0.0,0.0,0.0,0.0,0.0,0.0,0.0,0.0,0.0,0.0,0.0,0.0,0.0,0.0,0.0,0.0,0.0,0.0,0.0,0.0,0.0,0.0,0.0,0.0,0.0,0.0,0.0,0.0,0.0,0.0,0.0,0.0,0.0,0.0,0.0,0.0,0.0,0.0,0.0,0.0,0.0,0.0,0.0,0.0,0.0,0.0,0.0,0.0,0.0,0.0,0.0,0.0,0.0,0.0,0.0,0.0,0.0,0.0,0.0,0.0,0.0,0.0,0.0,0.0,0.0,0.0,0.0,0.0,0.0,0.0,0.0,0.0,0.0,0.0,0.0,0.0,0.0,0.0,0.0,0.0,0.0,0.0,0.0,0.0,0.0,0.0,0.0,0.0,0.0,0.0,0.0,0.0,0.0,0.0,0.0,0.0,0.0,0.0,0.0,0.0,0.0,0.0,0.0,0.0,0.0,0.0,0.0,0.0,0.0,0.0,0.0,0.0,0.0,0.0,0.0,0.0
0.3425234247670754,-0.24992210561543537,0.022788077409866173,0.298942683708704,0.5401375519144017,0.7810146186455393,0.9226729894306716,0.7984866589941958,0.5564622959966276,0.3944423404335545,0.26068717493527654,0.21607024866418253,0.15634571135082265,0.10966539414085247,0.08135297373303488,0.07901431577099542,0.10340666731799007,0.14235136915863875,0.16502689065758347,0.1375673397268424,0.48341436593464565,-0.1434929108704912,0.08302610751288365,0.2624359799075139,0.4518091355398028,0.6903352494935572,0.8452355299954415,0.7475843934585072,0.5579271096861395,0.4432729661632845,0.3948576908081523,0.363586436705062,0.30987378794918485,0.2881051950606588,0.20771074242924797,0.13562794567526004,0.09389944885256277,0.0802180203090704,0.10140690798278738,0.05661985073346476,0.2988943412692288,-0.3934406721542629,-0.058780610181097606,0.18586481612890426,0.4048080180477797,0.66654549585518,0.7972211187643319,0.6876529792962676,0.4888872328554571,0.40218681656181243,0.38988572198049753,0.44170877700459693,0.4511234384696015,0.42040543129118535,0.39900479505239156,0.3697896302139596,0.3270397285718218,0.29775226720337394,0.29903092647609025,0.17487032154872695,0.22961558891185133,-0.5038736697068948,-0.17089527645950686,0.085686320371147,0.2822729854329613,0.5315215765712125,0.6999323711201922,0.5908472576189134,0.3918653990365231,0.26585335032768276,0.21550364187973411,0.19671136074067802,0.2022747690016161,0.20787061565809378,0.2424385080079292,0.23904204857885045,0.28216520007100815,0.3162828439685155,0.40495124527680526,0.34350345814664107,0.27690977077507445,0.8759292387875393,0.10056902295821049,0.10422027277340008,0.13587091267801613,0.23015042373833475,0.38516381131673105,0.4464519890225819,0.29798002205540663,0.12160795732906475,0.021581284614962774,0.015781325527015895,0.021648853812037457,0.04565131791172365,0.04327492561921788,0.058651953860612026,0.08074831245139122,0.14532573201986007,0.25428493658722906,0.1812521963626882,0.21537067735316656,0.20331206478086455,0.2808936881135189,0.4629467848513614,0.5379297419026844,0.3498452383898065,0.1726087833149994,0.09637378607173733,0.057968939584754124,0.07335734700008491,0.08849787861616959,0.11478750640394307,0.13128398182730422,0.14443732967462328,0.2177653501102013,0.3090182941834005,0.3086045745977413,0.4409716130769238,-0.29754736392470404,0.07139445462777219,0.31512171772290265,0.4690192718805316,0.6457029990422849,0.7108703544834272,0.5245087217846439,0.28520795883016603,0.12307318280560733,0.0658653638362475,0.06297087701516496,0.07709173552764825,0.07891921815601845,0.07452664593733971,0.10042344227036674,0.15202938702761962,0.12698651148753423,0.33116560222785435,-0.437691613364302,-0.02469944928654048,0.2476995837402789,0.5275285807157917,0.8269865304676152,1.0,0.865108993671123,0.6372838887142641,0.47670504229372834,0.36777885522318904,0.2983334506988588,0.2580973940825352,0.20445898105111937,0.20475706205452746,0.04669414944815348,-0.0357531315544491,-0.07150363168331073,-0.06930862588643401,0.04730959521497656,0.2053160340140745,0.4077666987504906,0.6128227380709577,0.594502455194137,0.3718348897351398,0.2640260600429195,0.19764931453660128,0.2320558994833314,0.27327221947885943,0.3258616777402547,0.36318890174176316,0.32475628678371,0.4038287056074144,-0.30242493951934113,-0.004349153344565542,0.20236037815531052,0.3454955761275299,0.5000239202020058,0.5967182581932817,0.4872140457060678,0.3206605125160967,0.20169107552811713,0.17672774791255813,0.165499615797706,0.16382612406756086,0.18198322616298995,0.2610630095639937,0.18953372708485589,0.1834951084816413,-0.16109768967301688,0.0471629734835428,0.29543616470486156,0.46921836886457746,0.6514613676691117,0.7744539367920228,0.6582470120682126,0.45730866738652126,0.261806585577416,0.1440247209653305,0.05259744995078339,-0.002968577273748811,-0.04284255803687619,-0.0438213994875292,0.04050989019868362,0.026774913847855523,-0.0020835798827840432,0.26477029476081326,0.4453618594712857,0.6279589900875202,0.704131474049444,0.5224544070491676,0.2423320893027737,0.09012650206142837,0.03843412153034886,-0.00901160108473855,0.016260133035276254,0.01608115796775329,0.03038883143532037,0.052704772894198684,0.09671462909098227,0.20501845535829294,0.1565596685588256,0.12861831439796229,-0.34716053593419566,-0.010719883349107917,0.30285789216140263,0.5536449120164704,0.7701939015007767,0.9639342881356915,0.9016583041749079,0.6628883684418831,0.4439424485440393,0.29884457436932765,0.17965429128488966,0.07267070951249856,0.014031804770838254,-0.0038772749517659933,-0.015303386664071397,-0.002750974205486298,0.021220931660505066,0.07296823362286042,0.1239528952531514,0.08400260894227424,0.4739571237441106,-0.22573089610777344,0.03597039319429994,0.2569531788156923,0.4790813137217012,0.6981821644630856,0.8275217041860538,0.7503063743801823,0.6179601083669755,0.5339656052275601,0.46217504444869834,0.45089921474697026,0.42974425582838566,0.36597921788813553,0.28279806556005443,0.20605612706569393,0.18329332071869625,0.16845630640689058,0.18967978888609469,0.13965521916846682,0.28011562548031993,-0.3739616688612492,-0.04282544871480421,0.1835298205128202,0.3861579622830562,0.5879020819764765,0.7024124213478014,0.6250743844666723,0.4601403237133989,0.3913748143985721,0.4031810760576956,0.4050104975936647,0.43148254574287026,0.43389475176728853,0.40995814737678343,0.37716531783001805,0.3560504482906967,0.3698090315797403,0.25216758670363937,0.23747117483052385,-0.3404762574477668,-0.11509441032744261,0.07244196316467615,0.23052776530482363,0.43261554840667577,0.5893214534209519,0.5165258614395339,0.3299057019811841,0.19954056024739114,0.1768060337757865,0.1555678506446816,0.18758018287070988,0.2154054917952107,0.22916232735514266,0.2866893681910686,0.3716351857973224,0.4444390892910889,0.4073287291818666,0.4653726785136325,-0.12826396866789566,0.15585107104968324,0.3353903547148844,0.4392782715431543,0.55921280877359,0.4676869954091987,0.3724329708852172,0.28372376218829853,0.20726505959657407,0.10729140766438697,0.04124808655398769,0.019783725897999545,0.012457478195608006,0.0759528695690183,0.08052981998663351,0.036455755658303335,0.43223115859391753,-0.28326942385873816,-0.008413514361930835,0.20219354049540814,0.40792298206301125,0.6285775946777926,0.7325365506967938,0.6254605883623652,0.480087044038635,0.4257781186219514,0.4126987367345041,0.4088931360705859,0.3702288920476936,0.338935095735348,0.28951778132754613,0.2584956508942857,0.2283611768165958,0.08458920494432258,-0.018744475026151026,0.3870727909565982,0.11120544104609031,0.10288217037589499,0.1532224088087944,0.3029243468505261,0.4964299872658,0.5298018955284072,0.35318492081097075,0.19445429801639147,0.13424694208969812,0.1276482457535811,0.15371167185027318,0.1888268514969724,0.24704781223777206,0.30324064764936415,0.32542200425387846,0.3523718677970482,0.3631369716349393,0.2892052607677451,0.4086584736175362,-0.4328407354955076,-0.13368749348490996,0.05290131543422319,0.22091695395246622,0.4487517155629532,0.5891862554744939,0.48777031710984664,0.2757733131516657,0.14647657998249888,0.10293196913219457,0.08351304371241572,0.0977381638137937,0.08207767926306611,0.1073024940223616,0.09770746005608967,0.13091074624101334,0.16544723856927585,0.2701834699512468,0.2636449585833508,0.27404722829008826,-0.16010264388584786,0.07288748536741986,0.29087392966369696,0.43033443884626915,0.5902001109009318,0.6791717861551525,0.5393675168406974,0.2872108881624066,0.1114094687622665,0.013104478725495113,-0.003900225426227739,-0.012653007512013809,-0.01543700540271756,-0.022904191596869652,-0.026301805266901776,-0.01991855938282207,0.0445704274977557,0.03629705324142123,0.002066043853675536,0.645349365718887,-0.09173221160351239,0.0248653819582298,0.18364295419796747,0.40097390583429876,0.64110821833085,0.7164918397047838,0.5297356346695984,0.28476820536162917,0.0,0.0,0.0,0.0,0.0,0.0,0.0,0.0,0.0,0.0,0.0,0.0,0.0,0.0,0.0,0.0,0.0,0.0,0.0,0.0,0.0,0.0,0.0,0.0,0.0,0.0,0.0,0.0,0.0,0.0,0.0,0.0,0.0,0.0,0.0,0.0,0.0,0.0,0.0,0.0,0.0,0.0,0.0,0.0,0.0,0.0,0.0,0.0,0.0,0.0,0.0,0.0,0.0,0.0,0.0,0.0,0.0,0.0,0.0,0.0,0.0,0.0,0.0,0.0,0.0,0.0,0.0,0.0,0.0,0.0,0.0,0.0,0.0,0.0,0.0,0.0,0.0,0.0,0.0,0.0,0.0,0.0,0.0,0.0,0.0,0.0,0.0,0.0,0.0,0.0,0.0,0.0,0.0,0.0,0.0,0.0,0.0,0.0,0.0,0.0,0.0,0.0,0.0,0.0,0.0,0.0,0.0,0.0,0.0,0.0,0.0,0.0,0.0,0.0,0.0,0.0,0.0,0.0,0.0,0.0,0.0,0.0,0.0,0.0,0.0,0.0,0.0,0.0,0.0,0.0,0.0,0.0,0.0,0.0,0.0,0.0,0.0,0.0,0.0,0.0,0.0,0.0,0.0,0.0,0.0,0.0,0.0,0.0,0.0
0.5748450176571569,0.33326349479243744,0.18846969330213317,0.13613806391156102,0.10755908488897298,0.1359983598903499,0.2084861613425561,0.11933509222807384,0.19779759413512035,-0.4834238273242462,-0.07883635212408951,0.21986172721748728,0.4788252495561667,0.7529733317354813,1.0,0.989199535007171,0.7720230876219233,0.6328192333728164,0.5577830851566439,0.5123657498598526,0.4654723524391604,0.38686965776896004,0.29731000640090577,0.2715564136898718,0.27202418140556245,0.12760808371308355,0.06948744761707072,0.7587813309277498,0.2514722794225423,0.18911209088596656,0.19922913569968825,0.32200717260244494,0.5055914781931246,0.5702238605639797,0.39577352035313723,0.21729372485974202,0.13069928134105088,0.12215028878983043,0.16009005690074604,0.20561556977241352,0.24661326519231253,0.27831426771467876,0.3253313282058427,0.3327692452897753,0.24184228307489775,0.6103709878970274,-0.2939599311434015,-0.05400413134539257,0.09227136968461477,0.2274049532687428,0.4490580699346876,0.5545809263029907,0.3724327465751129,0.16446715787958904,0.05988095710511564,0.021079181744740952,0.016083881238484688,0.035386245037485234,0.03274880795044897,0.06002082607399661,0.08479172148435551,0.189157347554821,0.19033529842108224,0.19245720224490453,0.978484207327722,0.21376869945987725,0.31979248345592337,0.42845234752343225,0.5751664067939954,0.777634498335772,0.815466002245037,0.5322173396809594,0.22428256959894605,0.011755933597180902,-0.08810945596347276,-0.10472743980872293,-0.1176271895585612,-0.1285497705480246,-0.11718792899532647,-0.0649506023833263,-0.006384002746713316,0.08619435392958757,0.07929393243281088,0.09738798788602658,0.872483206678812,0.41780709401046456,0.353328781365391,0.41635180660754173,0.6146730875877157,0.8471980403482371,0.910853201487944,0.7205244100023678,0.5065265880658427,0.36349138104206313,0.24042990738931574,0.13085785804982525,0.05594417770185175,-0.0003035183618730823,-0.030112346542842176,-0.02095628480297144,0.005989681458203574,0.8025810198645957,0.24504185686538887,0.14646336183983166,0.15467800329220854,0.32844544783467283,0.5597336516295024,0.627730600703386,0.4269924155623766,0.235345552598629,0.14308255426818212,0.1411115854605355,0.17151269697945357,0.18543935240822665,0.22867424900010327,0.3098384817153319,0.3303909855863226,0.4013580699609308,0.45055362199016613,0.33190027271542466,0.28518448018837045,-0.5045671885513575,-0.208304349201869,0.012501172920907216,0.18726734798667935,0.4573262098212169,0.6585135385526163,0.5847490429763542,0.3613705090738713,0.20358978070950426,0.15809755434233674,0.1631261893063197,0.17203078501005445,0.17964730905955437,0.18988498724436098,0.22177567767989292,0.30601701263335823,0.3778112225137091,0.3576675779556242,0.3428227176814058,0.7947725281932408,0.5213611400971384,0.47624164650760265,0.4671330179750295,0.5540987537974307,0.6576314355602294,0.5888993534324267,0.3051176045715247,0.09319130789906742,0.008417988706906573,-0.006251520704783695,0.028430043224040986,0.03899423141601967,0.04573834213059432,0.06550267167035306,0.1108062789140526,0.173859154186124,0.22785829535827246,0.21056755940304242,0.4866653267350261,-0.33868583078852815,0.0946308135758772,0.39526438049847823,0.6137841314041186,0.8707576928560946,0.9665628754469021,0.7434869206821432,0.45949327728305345,0.22519527877094936,0.09287034331713157,0.0007201325885203978,-0.03830070503399257,-0.05920072169671845,-0.043836423573905506,-0.004305753896085463,0.04038389459505648,0.138201173552326,0.09600224545672113,0.0987308458439326,0.5249114214374307,0.34917218824044344,0.37608593575220484,0.4958982598942693,0.6991002787437121,0.9455014688882525,0.962437541626122,0.7330431976897536,0.5524251560829849,0.4145121619648538,0.32187221583285847,0.22176233385254263,0.13014196166908962,0.0387717872161375,-0.014785459722004861,-0.012411782514507717,0.07783944803091825,-0.008073057924365362,-0.013077326322481651,-0.5166479067036169,-0.20565628159309327,0.05960775577819599,0.41270595791386794,0.41898713100488955,0.4233079929870113,0.4784229765689698,0.5078862368291278,0.5056819790645326,0.4899895180409223,0.437936057158994,0.38238736251621086,0.3484291948119331,0.3067006927839875,0.11592512686230097,0.02025821287850224,0.08453322465557693,-0.03302358696711111,0.060817191517408546,0.16514941019027288,0.37289520883086824,0.6110491661580953,0.6285784366514378,0.3805592360667057,0.18848617775136042,0.12020875968119814,0.10746376233932449,0.11871593938807239,0.134960432494113,0.13762389061763264,0.18591044509482765,0.2521712636268153,0.33468263675521137,0.25844714400727387,0.1725413464061289,0.940303256158733,0.3653637395506478,0.18087430234171264,0.11590077351549123,0.18728725924327383,0.38119812419442606,0.401202825521324,0.18636389028630052,0.004570604051945382,-0.06252415579300499,-0.048206366987245015,-0.039768676626177245,-0.018634438263383495,0.0009371062077167987,0.02715773057236705,0.0833627344927017,0.16868963294232656,0.15869467434252296,0.19208269545255785,0.904905844625418,0.5000552927434505,0.45919911209296116,0.4733768560929763,0.5775780772437692,0.7454316371652189,0.7211179459112091,0.44153067583002087,0.16763554858925706,-0.0007775475049600881,-0.06503116665587574,-0.07484308699947374,-0.0686902860073917,-0.05911657866527803,-0.026683789763917123,-0.0012076275652962024,0.10891908000121682,0.1274010783393898,0.068499053344113,0.6170936091300164,-0.12935502147740807,0.10718625720605657,0.3255493027852734,0.5136443357162463,0.3054893335477803,0.17380750051162808,0.1289725790559604,0.1407399605095108,0.22077817603968788,0.0,0.0,0.0,0.0,0.0,0.0,0.0,0.0,0.0,0.0,0.0,0.0,0.0,0.0,0.0,0.0,0.0,0.0,0.0,0.0,0.0,0.0,0.0,0.0,0.0,0.0,0.0,0.0,0.0,0.0,0.0,0.0,0.0,0.0,0.0,0.0,0.0,0.0,0.0,0.0,0.0,0.0,0.0,0.0,0.0,0.0,0.0,0.0,0.0,0.0,0.0,0.0,0.0,0.0,0.0,0.0,0.0,0.0,0.0,0.0,0.0,0.0,0.0,0.0,0.0,0.0,0.0,0.0,0.0,0.0,0.0,0.0,0.0,0.0,0.0,0.0,0.0,0.0,0.0,0.0,0.0,0.0,0.0,0.0,0.0,0.0,0.0,0.0,0.0,0.0,0.0,0.0,0.0,0.0,0.0,0.0,0.0,0.0,0.0,0.0,0.0,0.0,0.0,0.0,0.0,0.0,0.0,0.0,0.0,0.0,0.0,0.0,0.0,0.0,0.0,0.0,0.0,0.0,0.0,0.0,0.0,0.0,0.0,0.0,0.0,0.0,0.0,0.0,0.0,0.0,0.0,0.0,0.0,0.0,0.0,0.0,0.0,0.0,0.0,0.0,0.0,0.0,0.0,0.0,0.0,0.0,0.0,0.0,0.0,0.0,0.0,0.0,0.0,0.0,0.0,0.0,0.0,0.0,0.0,0.0,0.0,0.0,0.0,0.0,0.0,0.0,0.0,0.0,0.0,0.0,0.0,0.0,0.0,0.0,0.0,0.0,0.0,0.0,0.0,0.0,0.0,0.0,0.0,0.0,0.0,0.0,0.0,0.0,0.0,0.0,0.0,0.0,0.0,0.0,0.0,0.0,0.0,0.0,0.0,0.0,0.0,0.0,0.0,0.0,0.0,0.0,0.0,0.0,0.0,0.0,0.0,0.0,0.0,0.0,0.0,0.0,0.0,0.0,0.0,0.0,0.0,0.0,0.0,0.0,0.0,0.0,0.0,0.0,0.0,0.0,0.0,0.0,0.0,0.0,0.0,0.0,0.0,0.0,0.0,0.0,0.0,0.0,0.0,0.0,0.0,0.0,0.0,0.0,0.0,0.0,0.0,0.0,0.0,0.0,0.0,0.0,0.0,0.0,0.0,0.0,0.0,0.0,0.0,0.0,0.0,0.0,0.0,0.0
0.44556915628842975,0.7265748687121819,0.8729032115810751,0.7063455814162871,0.46796769725644854,0.29540719007216154,0.2355238411142854,0.14916056549679307,0.08317448981538789,0.022664885681434717,0.005186948560313172,0.010630989971684345,0.04976585009122163,0.11959517714617914,0.0776108287088585,0.10199459518568935,-0.4493999870061704,-0.10372491734489621,0.15799548467055435,0.3610900084444353,0.598224224258116,0.7812549387368141,0.7621390120941237,0.6063750649568206,0.5011119717286312,0.1677130406292142,0.16609644838538812,0.6971698321939623,0.3647118679488673,0.3588557157542866,0.41286018471653335,0.5449578657659755,0.7186907611363821,0.7711076836835568,0.6430504399278196,0.48555437053512995,0.4250975695579238,0.4345069918794112,0.4233622346006361,0.373414693258846,0.39439223428155995,0.3329950968341064,0.28629826185050294,0.24088190416332678,0.1204515655977292,0.18800365328944768,-0.46536297921950526,-0.13987060165385695,0.08262859712929406,0.2672666051763781,0.5130297982072103,0.6741069635517473,0.5976157386051195,0.41527393555207187,0.3030680411046785,0.28072953876054973,0.26754008656258477,0.2698351410052271,0.30920208278876365,0.3506782651510919,0.400594911700103,0.4340309072834048,0.4439206111277365,0.34692990277391705,0.49499845265590003,-0.3046075945360475,-0.005724614078424263,0.15243615417302042,0.2863441699684963,0.4998190844185785,0.5901257556746496,0.4728323302608655,0.2521236086209527,0.11923722913622455,0.057816395333306445,0.03699451420280519,0.029252980657167534,0.028278758993775806,0.060497375726873796,0.07830009111473779,0.17098518930705434,0.16445277198612893,0.1918995087030667,1.0,0.4640943407594687,0.4238775983831617,0.4254727721865224,0.5057093385452716,0.6467261220755938,0.6528287068664858,0.4097941838025439,0.1531053111345899,0.012214026354992892,-0.034472994520393686,-0.03942769113660378,-0.05028232808756744,-0.034306776244952326,-0.027591823626603933,0.06584592715503994,0.05366864160433541,0.027397639764031048,0.5893522318048376,-0.09197376008737954,0.025122971371775223,0.14561978718463192,0.3346290819413916,0.568719196921274,0.658903103958256,0.540449211209755,0.3729571915733972,0.24719832173340664,0.18065195028228062,0.1450364041020773,0.07635415210772374,0.03932958728997416,0.0045629339837486155,-0.034651902653655114,-0.06232716280929502,-0.0036909317835812114,0.0,0.0,0.0,0.0,0.0,0.0,0.0,0.0,0.0,0.0,0.0,0.0,0.0,0.0,0.0,0.0,0.0,0.0,0.0,0.0,0.0,0.0,0.0,0.0,0.0,0.0,0.0,0.0,0.0,0.0,0.0,0.0,0.0,0.0,0.0,0.0,0.0,0.0,0.0,0.0,0.0,0.0,0.0,0.0,0.0,0.0,0.0,0.0,0.0,0.0,0.0,0.0,0.0,0.0,0.0,0.0,0.0,0.0,0.0,0.0,0.0,0.0,0.0,0.0,0.0,0.0,0.0,0.0,0.0,0.0,0.0,0.0,0.0,0.0,0.0,0.0,0.0,0.0,0.0,0.0,0.0,0.0,0.0,0.0,0.0,0.0,0.0,0.0,0.0,0.0,0.0,0.0,0.0,0.0,0.0,0.0,0.0,0.0,0.0,0.0,0.0,0.0,0.0,0.0,0.0,0.0,0.0,0.0,0.0,0.0,0.0,0.0,0.0,0.0,0.0,0.0,0.0,0.0,0.0,0.0,0.0,0.0,0.0,0.0,0.0,0.0,0.0,0.0,0.0,0.0,0.0,0.0,0.0,0.0,0.0,0.0,0.0,0.0,0.0,0.0,0.0,0.0,0.0,0.0,0.0,0.0,0.0,0.0,0.0,0.0,0.0,0.0,0.0,0.0,0.0,0.0,0.0,0.0,0.0,0.0,0.0,0.0,0.0,0.0,0.0,0.0,0.0,0.0,0.0,0.0,0.0,0.0,0.0,0.0,0.0,0.0,0.0,0.0,0.0,0.0,0.0,0.0,0.0,0.0,0.0,0.0,0.0,0.0,0.0,0.0,0.0,0.0,0.0,0.0,0.0,0.0,0.0,0.0,0.0,0.0,0.0,0.0,0.0,0.0,0.0,0.0,0.0,0.0,0.0,0.0,0.0,0.0,0.0,0.0,0.0,0.0,0.0,0.0,0.0,0.0,0.0,0.0,0.0,0.0,0.0,0.0,0.0,0.0,0.0,0.0,0.0,0.0,0.0,0.0,0.0,0.0,0.0,0.0,0.0,0.0,0.0,0.0,0.0,0.0,0.0,0.0,0.0,0.0,0.0,0.0,0.0,0.0,0.0,0.0,0.0,0.0,0.0,0.0,0.0,0.0,0.0,0.0,0.0,0.0,0.0,0.0,0.0,0.0,0.0,0.0,0.0,0.0,0.0,0.0,0.0,0.0,0.0,0.0,0.0,0.0,0.0,0.0,0.0,0.0,0.0,0.0,0.0,0.0,0.0,0.0,0.0,0.0,0.0,0.0,0.0,0.0,0.0,0.0,0.0,0.0,0.0,0.0,0.0,0.0,0.0,0.0,0.0,0.0,0.0,0.0,0.0,0.0,0.0,0.0,0.0,0.0,0.0,0.0,0.0,0.0,0.0,0.0,0.0,0.0,0.0,0.0,0.0,0.0,0.0,0.0,0.0,0.0,0.0,0.0,0.0,0.0,0.0,0.0,0.0,0.0,0.0,0.0,0.0,0.0,0.0,0.0,0.0,0.0,0.0,0.0,0.0,0.0,0.0,0.0,0.0,0.0,0.0,0.0,0.0,0.0,0.0,0.0,0.0,0.0,0.0,0.0,0.0,0.0,0.0,0.0,0.0,0.0,0.0,0.0,0.0,0.0,0.0,0.0,0.0,0.0,0.0,0.0,0.0,0.0,0.0,0.0,0.0,0.0,0.0,0.0,0.0,0.0,0.0,0.0,0.0,0.0,0.0,0.0,0.0,0.0,0.0,0.0,0.0,0.0,0.0,0.0,0.0,0.0,0.0,0.0,0.0,0.0,0.0,0.0,0.0,0.0,0.0,0.0,0.0,0.0,0.0,0.0,0.0,0.0,0.0,0.0,0.0,0.0,0.0,0.0
0.312655968628216,0.8352123584476191,1.0,0.9969584220397006,0.9199903879053134,0.815050446880801,0.7041898385082885,0.5975998914964618,0.49966569102454683,0.41186922996220326,0.33437067661802017,0.26656691285223405,0.20769828873280924,0.15764337292907896,0.11345651848625811,0.07721569078244198,0.04685075662774929,0.021735718196796806,0.0013775832929041505,-0.014908815506783584,-0.027947925899636104,-0.03794937299410517,-0.04514224969409504,-0.049857630035045675,-0.052502746260177174,-0.053410708840561885,-0.05284075798109233,-0.0510601324615652,-0.048235017915977396,-0.04456596704247372,-0.04021677152389665,-0.03535855349243537,-0.030070123093333314,-0.02449128878645287,-0.018916376268898825,-0.013170793580635599,-0.0077865856470998454,-0.0017957231883731412,0.004273248197162732,0.010135304837368972,0.015941322365999183,0.021633969848399253,0.02693209419912864,0.03175152863057497,0.03639160199781294,0.04092824474610854,0.045265250495509425,0.04941581688288459,0.053304423825199475,0.05691262244940455,0.06026946260122234,0.06339214534704736,0.06627946989362345,0.06891131518262054,0.07121091605330848,0.07338624585770027,0.07508280042674054,0.07652442226294219,0.07868926926089688,0.07879926038300868,0.07966545991362418,0.08041106154398762,0.08110209844764239,0.08168202328454459,0.08201243089863829,0.08183987114561232,0.08141377862039141,0.08094647490185972,0.08045378561634965,0.07990638316898423,0.07920464960665437,0.07835767331037084,0.07747017991168813,0.07641672730550697,0.07535908306519455,0.07422433160410988,0.07301007421351939,0.07174069183153808,0.07041757470548768,0.06882153147912193,0.06719759852498913,0.06551795483889569,0.06387611909492553,0.062330589728741136,0.0607610546320792,0.05924549288743336,0.057783144218560456,0.05612055053304369,0.05420206487444121,0.05228550189741228,0.05048360114759006,0.048775600860612306,0.047106296997473054,0.04544890078569666,0.043771360001228665,0.042153015001593304,0.040544775325122594,0.038967227834377526,0.037474443732670976,0.03606549505815408,0.03448435092800313,0.03273373801675035,0.03125766196140983,0.02991270366334856,0.028723220266756957,0.027556548245380254,0.026203958863445793,0.024667758246379706,0.02324224365726418,0.02192996965494916,0.020765553275666693,0.01963920059910818,0.01856822025557205,0.017556247295100445,0.016543472133452204,0.01555597483875385,0.014585562905133324,0.013688323424045145,0.012798594892859094,0.011804893294474154,0.011002932146413484,0.009408257485849647,0.008994788518492487,0.008540651397138553,0.00805224817955968,0.007694317703225734,0.007282620889855253,0.0067098073670135506,0.005903182997808782,0.005211862592182951,0.004628451909511916,0.004146033441867952,0.0036857672817222987,0.0032970047537711463,0.00291947009582921,0.0025843792063947896,0.0023073468343248874,0.002089896630317802,0.0018983452676809892,0.0017844736118335285,0.0014827912785487297,0.0012391384347723593,0.0012631468088183545,0.0008684665725914736,0.000724268839553702,0.0006268734525486856,0.0005360040361247093,0.0005461293389769203,0.0004078056953636545,8.125097680844341e-05,-0.00028929710876020293,-0.0005188751069087991,-0.000603497203355698,-0.000665831877048114,-0.0007118425285225489,-0.0007569823524654285,-0.0007920001100633007,-0.0008387457537608398,-0.0008812845952886965,-0.0008945520093620495,-0.0008921146333818748,-0.0009734315559124029,-0.0007707833379127313,-0.001669593801055806,0.0,0.0,0.0,0.0,0.0,0.0,0.0,0.0,0.0,0.0,0.0,0.0,0.0,0.0,0.0,0.0,0.0,0.0,0.0,0.0,0.0,0.0,0.0,0.0,0.0,0.0,0.0,0.0,0.0,0.0,0.0,0.0,0.0,0.0,0.0,0.0,0.0,0.0,0.0,0.0,0.0,0.0,0.0,0.0,0.0,0.0,0.0,0.0,0.0,0.0,0.0,0.0,0.0,0.0,0.0,0.0,0.0,0.0,0.0,0.0,0.0,0.0,0.0,0.0,0.0,0.0,0.0,0.0,0.0,0.0,0.0,0.0,0.0,0.0,0.0,0.0,0.0,0.0,0.0,0.0,0.0,0.0,0.0,0.0,0.0,0.0,0.0,0.0,0.0,0.0,0.0,0.0,0.0,0.0,0.0,0.0,0.0,0.0,0.0,0.0,0.0,0.0,0.0,0.0,0.0,0.0,0.0,0.0,0.0,0.0,0.0,0.0,0.0,0.0,0.0,0.0,0.0,0.0,0.0,0.0,0.0,0.0,0.0,0.0,0.0,0.0,0.0,0.0,0.0,0.0,0.0,0.0,0.0,0.0,0.0,0.0,0.0,0.0,0.0,0.0,0.0,0.0,0.0,0.0,0.0,0.0,0.0,0.0,0.0,0.0,0.0,0.0,0.0,0.0,0.0,0.0,0.0,0.0,0.0,0.0,0.0,0.0,0.0,0.0,0.0,0.0,0.0,0.0,0.0,0.0,0.0,0.0,0.0,0.0,0.0,0.0,0.0,0.0,0.0,0.0,0.0,0.0,0.0,0.0,0.0,0.0,0.0,0.0,0.0,0.0,0.0,0.0,0.0,0.0,0.0,0.0,0.0,0.0,0.0,0.0,0.0,0.0,0.0,0.0,0.0,0.0,0.0,0.0,0.0,0.0,0.0,0.0,0.0,0.0,0.0,0.0,0.0,0.0,0.0,0.0,0.0,0.0,0.0,0.0,0.0,0.0,0.0,0.0,0.0,0.0,0.0,0.0,0.0,0.0,0.0,0.0,0.0,0.0,0.0,0.0,0.0,0.0,0.0,0.0,0.0,0.0,0.0,0.0,0.0,0.0,0.0,0.0,0.0,0.0,0.0,0.0,0.0,0.0,0.0,0.0,0.0,0.0,0.0,0.0,0.0,0.0,0.0,0.0,0.0,0.0,0.0,0.0,0.0,0.0,0.0,0.0,0.0,0.0,0.0,0.0,0.0,0.0,0.0,0.0,0.0,0.0,0.0,0.0,0.0,0.0,0.0,0.0,0.0,0.0,0.0,0.0,0.0,0.0,0.0,0.0,0.0,0.0,0.0,0.0,0.0,0.0,0.0,0.0,0.0,0.0,0.0,0.0,0.0,0.0,0.0,0.0,0.0,0.0,0.0,0.0,0.0,0.0,0.0,0.0,0.0,0.0,0.0,0.0,0.0,0.0,0.0,0.0,0.0,0.0,0.0,0.0,0.0,0.0,0.0,0.0,0.0,0.0,0.0,0.0,0.0,0.0,0.0,0.0,0.0,0.0,0.0,0.0,0.0,0.0,0.0,0.0,0.0,0.0,0.0,0.0,0.0,0.0,0.0,0.0,0.0,0.0,0.0,0.0,0.0,0.0,0.0,0.0,0.0,0.0,0.0,0.0,0.0,0.0,0.0,0.0,0.0,0.0,0.0,0.0,0.0
-0.020365682756811887,0.26205912207985566,0.4560430083879288,0.6596031648009276,0.7852068642720635,0.6062713278888319,0.27414348657837606,0.047301624025052,-0.023663641084712406,-0.05684159517739707,-0.027625394813852972,-0.011698815773803427,0.01099409978365829,0.023127359396146695,0.05980238019713015,0.13514947785673886,0.20540051251209931,0.1506528721826795,0.14869973842302361,0.17582971919002785,0.2329487927382707,0.41214025741956556,0.5624963458516222,0.7738176759598573,0.979987332477587,1.0,0.7225967856086842,0.40396193934592534,0.2569664536283122,0.12748704909826608,0.019593337257457034,-0.04441006797852405,-0.08005760334779263,-0.09649701268479788,-0.07779442955906736,-0.07411101477715101,-0.017068879655210305,0.4977085692578846,-0.36610469950946867,-0.0892546279983662,0.13340367541761863,0.35206189225639656,0.621469946979793,0.7971516383880303,0.7104654351314513,0.51462486343999,0.4066054328544043,0.39008229738997247,0.41493344047976827,0.4141669282848995,0.39874611265445703,0.3367785209573496,0.3171808008326488,0.2569970104484299,0.25425834757173843,0.125709980311179,-0.006001336046618509,0.8041978824324708,0.01153611367531068,-0.008330663079371579,0.06396023500632408,0.21656437365146156,0.4563285296193251,0.5648882447141277,0.4159667603357237,0.2024081908031528,0.09790714876002837,0.05596188363032774,0.07793870990634559,0.11915867165181368,0.17414904891262148,0.18455317037871827,0.2492958876938673,0.2899595322028384,0.34255382882448104,0.40524809999296363,0.2961330118627939,0.22946648007111586,-0.18774186738722154,-0.09022440025730012,0.0620292211550449,0.14867670005272357,0.3279248281885541,0.530490046813506,0.5421138207535362,0.3030820101060515,0.09924313954105451,0.03044069185700204,0.0018521982468034037,0.005730217979677365,0.015635770218455924,0.029292068275026242,0.04852526624848676,0.08883810166446925,0.09689352899167161,0.13241502557311402,0.23734583543123433,0.39846572996961493,0.3481661179667921,0.3011690898830986,0.6194477871302948,0.3551990131083275,0.32810586635864414,0.3398450748479219,0.4081840582261261,0.5864480346237216,0.5559531283278913,0.2856797500062421,0.032728640177565216,-0.08439175189176124,-0.09077880439074427,-0.07625839975650123,-0.07320553091485864,-0.04332484182814698,-0.012138761405341562,0.021276075085847338,0.07288858843560495,0.10350478251001334,0.15644656704968948,0.2590791494033172,0.2472927362704996,0.2938796851684388,-0.12679388907241107,0.14597745403162488,0.40056687887054154,0.5836534185019643,0.7417542313233091,0.8858240597590252,0.8430898659820555,0.5374230742456249,0.33080214072984654,0.190401231765014,0.1016284995198829,0.0681267840062165,0.06253782934969765,0.0752827878950261,0.09222358933546308,0.11654564480703833,0.04657897519512913,0.02911361160177842,0.7958475003961597,0.02993535059502508,0.10154322420957253,0.21467406476276182,0.3665806415001622,0.5394702474214567,0.700959830743788,0.592085817207171,0.43758147475160086,0.3910581154762383,0.3850177304017296,0.3993730188659759,0.3802988213972688,0.37107276385561555,0.3247041533535436,0.26440765505905095,0.20199903571363972,0.14564561205070356,0.16141184732956018,0.039091532866598715,0.058560473865313906,-0.6053854947879372,-0.23681441802785408,0.050091866242271584,0.23212117146522956,0.46750567712368246,0.672854174092983,0.6644770965496838,0.45927355274029563,0.33399719637646497,0.27773216618147745,0.2686195469831371,0.2788724519974379,0.310791457093763,0.3311162460733616,0.3685861242673624,0.38036385501768627,0.42208281392113023,0.4595639484980724,0.32231468798230395,0.20774419774480166,-0.08564459011740855,0.0015322904781710867,0.11597316739932992,0.18429343253710642,0.3327881542650721,0.5455134886661391,0.5512249699941212,0.35312178466534005,0.1385803254478466,0.03160637102491547,0.009408106392405916,-4.266907842676525e-05,0.004624247336034559,0.005175749575115947,-0.00020921567884366198,0.03269326299689156,0.11345940118713103,0.19878189544778707,0.15599823977685157,0.0,0.0,0.0,0.0,0.0,0.0,0.0,0.0,0.0,0.0,0.0,0.0,0.0,0.0,0.0,0.0,0.0,0.0,0.0,0.0,0.0,0.0,0.0,0.0,0.0,0.0,0.0,0.0,0.0,0.0,0.0,0.0,0.0,0.0,0.0,0.0,0.0,0.0,0.0,0.0,0.0,0.0,0.0,0.0,0.0,0.0,0.0,0.0,0.0,0.0,0.0,0.0,0.0,0.0,0.0,0.0,0.0,0.0,0.0,0.0,0.0,0.0,0.0,0.0,0.0,0.0,0.0,0.0,0.0,0.0,0.0,0.0,0.0,0.0,0.0,0.0,0.0,0.0,0.0,0.0,0.0,0.0,0.0,0.0,0.0,0.0,0.0,0.0,0.0,0.0,0.0,0.0,0.0,0.0,0.0,0.0,0.0,0.0,0.0,0.0,0.0,0.0,0.0,0.0,0.0,0.0,0.0,0.0,0.0,0.0,0.0,0.0,0.0,0.0,0.0,0.0,0.0,0.0,0.0,0.0,0.0,0.0,0.0,0.0,0.0,0.0,0.0,0.0,0.0,0.0,0.0,0.0,0.0,0.0,0.0,0.0,0.0,0.0,0.0,0.0,0.0,0.0,0.0,0.0,0.0,0.0,0.0,0.0,0.0,0.0,0.0,0.0,0.0,0.0,0.0,0.0,0.0,0.0,0.0,0.0,0.0,0.0,0.0,0.0,0.0,0.0,0.0,0.0,0.0,0.0,0.0,0.0,0.0,0.0,0.0,0.0,0.0,0.0,0.0,0.0,0.0,0.0,0.0,0.0,0.0,0.0,0.0,0.0,0.0,0.0,0.0,0.0,0.0,0.0,0.0,0.0,0.0,0.0,0.0,0.0,0.0,0.0,0.0,0.0,0.0,0.0,0.0,0.0,0.0,0.0,0.0,0.0,0.0,0.0,0.0,0.0,0.0,0.0,0.0,0.0,0.0,0.0,0.0,0.0,0.0,0.0,0.0,0.0,0.0,0.0,0.0,0.0,0.0,0.0,0.0,0.0,0.0,0.0,0.0,0.0,0.0,0.0,0.0,0.0,0.0,0.0,0.0,0.0,0.0,0.0,0.0,0.0,0.0,0.0,0.0,0.0,0.0,0.0,0.0,0.0,0.0,0.0,0.0,0.0,0.0,0.0,0.0,0.0,0.0,0.0,0.0,0.0,0.0,0.0,0.0,0.0,0.0,0.0,0.0,0.0,0.0,0.0,0.0,0.0,0.0,0.0,0.0,0.0,0.0,0.0,0.0,0.0,0.0,0.0,0.0,0.0,0.0,0.0,0.0,0.0,0.0,0.0,0.0,0.0,0.0,0.0,0.0,0.0,0.0,0.0,0.0,0.0,0.0,0.0,0.0,0.0,0.0,0.0,0.0,0.0,0.0,0.0,0.0,0.0,0.0,0.0,0.0,0.0,0.0,0.0,0.0,0.0,0.0,0.0,0.0,0.0,0.0,0.0,0.0,0.0,0.0,0.0,0.0,0.0,0.0,0.0,0.0,0.0,0.0
0.5581270526796764,-0.22725077913140215,0.06838354001902149,0.24505919020609063,0.3433720835989887,0.4748289659220475,0.5598662630237174,0.4487938795215313,0.26414243551342925,0.1347436012480511,0.0877871085752827,0.09058072148607497,0.09546144150060365,0.10676799372624342,0.10441336124778262,0.11046327273819458,0.18677247893676335,0.15724582523271888,0.1708008262204369,0.9003155339982932,0.2515210279376163,0.27180207861879835,0.3501279038658618,0.488067759789437,0.6470056518450116,0.6874704392277101,0.47786686375452,0.2084581858977244,0.04468605619740264,-0.03868356423025278,-0.057429996519183776,-0.061997004525268046,-0.07091246977171912,-0.06369675169821566,-0.013560178939710173,0.07714023575480405,0.029950488373101918,-0.06845150187160862,0.02225482865882139,0.11495441397608944,0.28687647397934957,0.491153550806261,0.5812459139380675,0.4464613623963142,0.2869359802702975,0.1842228987081625,0.17496284357245634,0.21542861957998602,0.2421943625080351,0.2564418957217912,0.2491089786694705,0.2678617356706904,0.3091507807743807,0.17796282982282335,0.05511696481522522,-0.07200096037385606,-0.13524441154093436,-0.010124323192914274,0.06463389471176273,0.22535179417117526,0.4208276039410198,0.48167166126618893,0.3054646992795943,0.11204095464583892,0.07120073962775351,0.06397414440641695,0.07027382966824343,0.0818308127041084,0.09825487708586109,0.12309495605634815,0.13035280039607267,0.24018717782052404,0.23159041003089853,0.2345683091054472,1.0,0.4950711690406684,0.37438956281075286,0.3515398194301048,0.4198133816500996,0.5405895080400205,0.5397245345201404,0.3214693146819081,0.11193395950159139,-0.025082850983632752,-0.07542143760215478,-0.08204334127490755,-0.06465954081839115,-0.04336717681419058,-0.02171110012225629,0.025132781819698698,0.09756535941309426,0.08055832382115087,0.0757586137586522,0.7174411182970233,0.34114777329146917,0.2855426197356789,0.35089027169811565,0.5497961362049371,0.7865259981417619,0.8613385404319146,0.6847961604704397,0.44283211083145013,0.3245278671683049,0.25501224969471564,0.17792838246284506,0.07237414388915688,-0.005732080163106125,-0.05956564807733699,-0.025722829545780597,0.07253547032454148,-0.00669472469547645,-0.025479488619849815,-0.28954337732217966,-0.1177490404468426,0.09556881974095026,0.2881914960874811,0.5137228330517298,0.7111240723259176,0.7393808428393599,0.5796015414779049,0.4476885741968276,0.4311118312467042,0.41760333200464184,0.441444528580864,0.41675824090457136,0.4081562287996548,0.395153697677481,0.43684290043450696,0.3728806876427975,0.28126503457611207,0.6437968316735344,-0.15711533482608436,-0.015789052102806917,0.11046603213510801,0.27602047641504207,0.44187674278026795,0.5812485455293657,0.3699106982850884,0.2833655499148647,0.20972537891602172,0.15528781170996994,0.12556151432621335,0.14772194989303342,0.13942421839444144,0.08253749005319487,0.3071872381063603,-0.39608106573032376,-0.059863249148038665,0.1466057513496313,0.35060549559537874,0.5888049574167342,0.7599867987366117,0.7042313109597276,0.5763857356791866,0.484019087430805,0.42360193995499773,0.37820794689153503,0.32815095269294425,0.24940939606445117,0.16562873673975734,0.14812184918882326,0.1511958826336109,0.06297265742580976,-0.002690041386302789,0.6877578595643743,0.13263099695895247,0.10827748192283966,0.1470720556716567,0.252166197628416,0.446014490098651,0.5536983574213458,0.4353590674060774,0.25211741360530426,0.1776986010163425,0.15260469160582352,0.17643024122328987,0.20543389561915387,0.236056918408245,0.2568604283857924,0.2607378787700003,0.28943196790768855,0.31140829631014677,0.21240028200254182,0.3091275214302432,-0.42508101030862455,-0.14180785322395406,0.02712858421161991,0.16567121868537427,0.3798243606620068,0.5258234627412484,0.4764482254662826,0.31130255857868777,0.17538466607492845,0.0868374012717093,0.06419669644491038,0.07635960848763548,0.07016134388916402,0.07516746266701603,0.10321515931921708,0.18544509074927898,0.2714485301061523,0.27614770565279617,0.2421051943414988,0.4939546042603949,0.3241639208056391,0.32879867481308256,0.3554065995373633,0.4528452402003673,0.6144225855576216,0.5919494041622069,0.34012067194492185,0.10515575814406683,0.005630625462601979,0.0013564901747346002,-0.012464224329457376,-0.023230248455526355,-0.018339128507713288,-0.004883998041961229,0.048651428088593775,0.12808501663992108,0.07780422929115602,0.05657268153622651,0.8771203648080563,0.34038426591695126,0.27864753175641566,0.3479793123348731,0.511338996895348,0.7127743524240094,0.8053267803531311,0.6546407064834191,0.4801289124721656,0.3629223920134846,0.2671448410526137,0.20419284682356315,0.13818695493540478,0.13331148418952818,0.12019901828297687,0.1480621949897126,-0.42803721388716026,-0.07918961718679779,0.19041891527267663,0.41744127826791483,0.6645305027263956,0.8682716499672505,0.858878370380448,0.0,0.0,0.0,0.0,0.0,0.0,0.0,0.0,0.0,0.0,0.0,0.0,0.0,0.0,0.0,0.0,0.0,0.0,0.0,0.0,0.0,0.0,0.0,0.0,0.0,0.0,0.0,0.0,0.0,0.0,0.0,0.0,0.0,0.0,0.0,0.0,0.0,0.0,0.0,0.0,0.0,0.0,0.0,0.0,0.0,0.0,0.0,0.0,0.0,0.0,0.0,0.0,0.0,0.0,0.0,0.0,0.0,0.0,0.0,0.0,0.0,0.0,0.0,0.0,0.0,0.0,0.0,0.0,0.0,0.0,0.0,0.0,0.0,0.0,0.0,0.0,0.0,0.0,0.0,0.0,0.0,0.0,0.0,0.0,0.0,0.0,0.0,0.0,0.0,0.0,0.0,0.0,0.0,0.0,0.0,0.0,0.0,0.0,0.0,0.0,0.0,0.0,0.0,0.0,0.0,0.0,0.0,0.0,0.0,0.0,0.0,0.0,0.0,0.0,0.0,0.0,0.0,0.0,0.0,0.0,0.0,0.0,0.0,0.0,0.0,0.0,0.0,0.0,0.0,0.0,0.0,0.0,0.0,0.0,0.0,0.0,0.0,0.0,0.0,0.0,0.0,0.0,0.0,0.0,0.0,0.0,0.0,0.0,0.0,0.0,0.0,0.0,0.0,0.0,0.0,0.0,0.0,0.0,0.0,0.0,0.0,0.0,0.0,0.0,0.0,0.0,0.0,0.0,0.0,0.0,0.0,0.0,0.0,0.0,0.0,0.0,0.0,0.0,0.0,0.0,0.0,0.0,0.0,0.0,0.0,0.0,0.0,0.0,0.0,0.0,0.0,0.0,0.0,0.0,0.0,0.0,0.0,0.0,0.0,0.0,0.0,0.0,0.0,0.0,0.0,0.0,0.0,0.0,0.0,0.0,0.0,0.0,0.0,0.0,0.0,0.0,0.0,0.0,0.0,0.0,0.0,0.0,0.0,0.0,0.0,0.0,0.0,0.0,0.0,0.0,0.0,0.0,0.0,0.0,0.0,0.0,0.0,0.0,0.0,0.0,0.0,0.0,0.0,0.0,0.0,0.0,0.0,0.0,0.0,0.0,0.0,0.0,0.0,0.0,0.0,0.0,0.0,0.0,0.0,0.0,0.0,0.0,0.0,0.0,0.0,0.0,0.0,0.0,0.0,0.0,0.0,0.0,0.0,0.0,0.0,0.0,0.0,0.0,0.0,0.0,0.0,0.0,0.0,0.0,0.0,0.0,0.0,0.0,0.0,0.0,0.0,0.0,0.0,0.0,0.0,0.0,0.0,0.0,0.0,0.0,0.0,0.0,0.0,0.0
0.2634155776428038,0.16895905829697636,0.1119195556099603,0.15240308211540196,0.18810359963668605,0.17124953906612547,0.1766731438727529,0.16575659792727376,0.18785409275393605,0.13189783688240278,0.05082286020506734,0.7140848174449191,0.0011699291208652587,-0.07212100724625295,-0.02766674861779558,0.09750686859695054,0.3069795091079382,0.41445220974603525,0.2873635687685477,0.08811804088337541,0.007779495353365757,-0.003419404156320174,0.020676662329108083,0.03348518346215098,0.04614331463775729,0.07138031334566908,0.11675033041674567,0.21249700045040604,0.20495624465233997,0.3520645928469311,-0.30274602684468804,0.06166873225533248,0.30764714083687766,0.4758066065720322,0.6987165637182151,0.809597397606215,0.6683365144559049,0.3672886225239209,0.16798372495982994,0.08236174109869644,0.035583061478230905,0.02087718683781726,0.03784251808437455,0.044280276820233666,0.09750834047954865,0.1971245949693296,0.1134396276725542,0.08011347087601667,-0.28580078222681604,-0.048453208481257816,0.194677717897359,0.3651979895001709,0.603251617247258,0.8650736564266756,0.9269696902280926,0.7399925563708862,0.5410028366935397,0.4450487947373911,0.3844630615280513,0.30431419901284235,0.19982533672616296,0.09527700138438581,0.09774673565415211,0.09776295100045145,-0.03325366409393257,-0.09308891703333927,-0.05905384458414183,-0.09633844350944859,0.020376999497148014,0.1454225515686137,0.34768649586867323,0.5511598620636268,0.5910629156076778,0.40571261762173205,0.2510807432938871,0.21395840267364813,0.24818094542746721,0.2649894417507738,0.2679753531354863,0.2794379829946641,0.32605403604655503,0.23984387091261827,0.15814389654039476,0.5872977840827577,0.18940224161001804,0.08899585448254521,0.09699390646323652,0.20224735527512894,0.4023641560356355,0.4628779699818195,0.3101396681217369,0.14795077105741963,0.12557601760822024,0.14945830493126572,0.2434697794560035,0.2893717855969331,0.25450893715785294,0.594255009181439,-0.2625785283187637,0.029799844343876253,0.21469680120839618,0.34943928928105317,0.5172275617956459,0.586303739493592,0.41535373985423724,0.19186420486497233,0.05395934460246026,-0.00951285774428179,-0.015675699485624448,-0.01707957104626389,-0.015320748996705194,0.035774198273114705,0.13023333104114074,0.0865368160559802,0.07744413725769858,0.3919500209141566,0.23272292556770588,0.3190660684874622,0.4336289577698893,0.5971037995273463,0.7871893546682169,0.7841399780137696,0.5592784309237745,0.24394664088952875,0.04909721504570639,-0.01534248619593946,-0.0787689309719105,-0.12010766017536575,-0.12982068567617394,-0.10910642838128369,0.011705017439118491,0.0013549832112345751,-0.021514030987661036,0.6480937191464767,-0.10234489514681065,0.03916268757806674,0.19092416036640567,0.3740638386929883,0.5762674234768719,0.696449719538303,0.6255613027568576,0.47667086490264554,0.37199951968334904,0.3390259609700439,0.31247732305481335,0.2915659606887161,0.25360896032642444,0.22090356455288224,0.1950462441389936,0.19872993648725562,0.08865250623486186,-0.014172435192712935,0.6430012127094142,-0.059931385914671606,-0.04505969057339182,0.04991686513452686,0.19913269161401903,0.37274127588391703,0.4644661723054851,0.3548928479877454,0.19608640099001978,0.12299325755975096,0.10257442907740577,0.10776132265982803,0.1341746732218424,0.13404533243229572,0.1718584822967677,0.23885423664148714,0.3354273997443574,0.2959774840780161,0.23553982800334966,1.0,0.3971921453326,0.27055250950685683,0.2080655759811533,0.256288097415984,0.3960946684146503,0.4455490436473055,0.2637139374690593,0.06392980484791665,-0.03002937835777763,-0.06516086203491717,-0.06497306784896997,-0.06092957478706373,-0.046671388278003226,-0.03454289230933818,-0.003048309771631088,0.0812534394246548,0.17895739438597344,0.12049015463348826,0.08418831517666195,0.27983519160821874,0.27990780291487993,0.24124468300820717,0.17180576607430428,0.10184155336580866,0.042892520238177384,0.05148024679917574,0.11645464406376627,0.04634084242519947,0.0011568867003753452,-0.20460189599222328,-0.08888118776061855,0.09635651741968952,0.2476363020923038,0.43902081857747466,0.6163937845967365,0.6535865269553757,0.5040407665252858,0.3743658100387155,0.3537385668716716,0.334688788763349,0.332747279235004,0.310102139420143,0.2576006580886674,0.0,0.0,0.0,0.0,0.0,0.0,0.0,0.0,0.0,0.0,0.0,0.0,0.0,0.0,0.0,0.0,0.0,0.0,0.0,0.0,0.0,0.0,0.0,0.0,0.0,0.0,0.0,0.0,0.0,0.0,0.0,0.0,0.0,0.0,0.0,0.0,0.0,0.0,0.0,0.0,0.0,0.0,0.0,0.0,0.0,0.0,0.0,0.0,0.0,0.0,0.0,0.0,0.0,0.0,0.0,0.0,0.0,0.0,0.0,0.0,0.0,0.0,0.0,0.0,0.0,0.0,0.0,0.0,0.0,0.0,0.0,0.0,0.0,0.0,0.0,0.0,0.0,0.0,0.0,0.0,0.0,0.0,0.0,0.0,0.0,0.0,0.0,0.0,0.0,0.0,0.0,0.0,0.0,0.0,0.0,0.0,0.0,0.0,0.0,0.0,0.0,0.0,0.0,0.0,0.0,0.0,0.0,0.0,0.0,0.0,0.0,0.0,0.0,0.0,0.0,0.0,0.0,0.0,0.0,0.0,0.0,0.0,0.0,0.0,0.0,0.0,0.0,0.0,0.0,0.0,0.0,0.0,0.0,0.0,0.0,0.0,0.0,0.0,0.0,0.0,0.0,0.0,0.0,0.0,0.0,0.0,0.0,0.0,0.0,0.0,0.0,0.0,0.0,0.0,0.0,0.0,0.0,0.0,0.0,0.0,0.0,0.0,0.0,0.0,0.0,0.0,0.0,0.0,0.0,0.0,0.0,0.0,0.0,0.0,0.0,0.0,0.0,0.0,0.0,0.0,0.0,0.0,0.0,0.0,0.0,0.0,0.0,0.0,0.0,0.0,0.0,0.0,0.0,0.0,0.0,0.0,0.0,0.0,0.0,0.0,0.0,0.0,0.0,0.0,0.0,0.0,0.0,0.0,0.0,0.0,0.0,0.0,0.0,0.0,0.0,0.0,0.0,0.0,0.0,0.0,0.0,0.0,0.0,0.0,0.0,0.0,0.0,0.0,0.0,0.0,0.0,0.0,0.0,0.0,0.0,0.0,0.0,0.0,0.0,0.0,0.0,0.0,0.0,0.0,0.0,0.0,0.0,0.0,0.0,0.0,0.0,0.0,0.0,0.0,0.0,0.0,0.0,0.0,0.0,0.0,0.0,0.0,0.0,0.0,0.0,0.0,0.0,0.0,0.0,0.0,0.0,0.0,0.0,0.0,0.0,0.0,0.0,0.0,0.0,0.0,0.0,0.0,0.0,0.0,0.0,0.0,0.0,0.0,0.0,0.0,0.0,0.0,0.0,0.0,0.0,0.0,0.0,0.0,0.0,0.0,0.0,0.0,0.0,0.0,0.0,0.0,0.0,0.0,0.0,0.0,0.0,0.0,0.0,0.0,0.0,0.0,0.0,0.0,0.0,0.0,0.0,0.0,0.0,0.0,0.0,0.0,0.0,0.0,0.0,0.0,0.0,0.0,0.0,0.0
0.6180939735851111,0.570366866042967,0.5446868682543571,0.4611773126614265,0.30414939114455003,0.6356272355506717,-0.3971084697074468,-0.04808846065037717,0.22396607162787,0.47739227980710514,0.7901263747131375,1.0,0.8664401367844219,0.5991828551899425,0.4123699331840974,0.32903841755066193,0.3266528794287144,0.2881053860293211,0.2721979686369583,0.29657084425882163,0.3568126686888613,0.4166603256552254,0.47316921738252604,0.4910523691327573,0.41150022675019726,0.3878727074113468,-0.3844310278028928,-0.045859565738784046,0.24425761489661044,0.39725511401349395,0.5915187351618643,0.7422999062835514,0.6648861900472864,0.41123358668678495,0.23027656066720273,0.1430954513106079,0.13401911285059515,0.13641522130497327,0.15813145890614475,0.16732446540828194,0.20418074397137528,0.229505240328841,0.3089628314838871,0.327405605081624,0.29855527414755395,0.6482256566320675,-0.1416185730960561,0.22811867909927327,0.4648143469511053,0.6287465084171603,0.7841109529786953,0.8270288002371606,0.6359770890605203,0.32169083219257194,0.08359266783468429,-0.008257548909892986,-0.011691542196981371,-0.02521062101619733,-0.017953809016690057,-0.0021781263865983044,0.012801138994249516,0.08136948459119314,0.18490168090194622,0.12445045419431172,0.07984104562079393,0.7307026124787385,0.3527020840600336,0.3438110877772314,0.45705455086667257,0.6615476436985986,0.9048430555965035,0.9556385441114017,0.6958183703924936,0.40122559472104125,0.22421867703540385,0.09665206891194647,0.02877981273907855,-0.18131645894920362,-0.264170977186573,-0.17227276352534962,0.03362327340560514,0.06443651746540165,0.07895025115654869,0.449099370291854,0.29632702104127,0.32086844007348264,0.38357976058456894,0.47810671721822645,0.5858430154841264,0.5744989380954814,0.37646242587240547,0.11179025126394415,-0.010771890249969973,-0.03777118028271495,0.005806418655898071,0.007267735873985658,0.04012126242296595,0.07301450084206587,0.10399502002873624,0.1874605354899508,0.14456612483893075,0.16004922984764863,0.9120810500122493,0.08147476754827972,0.15059260402417965,0.2776061888443436,0.4218436732337529,0.6680729594351315,0.7957870684910716,0.6511162861989833,0.43299012299536643,0.2614441173804513,0.19477108227832787,0.13544110848045787,0.03982380235787456,-0.05535117722086621,-0.11335437050622044,-0.11460121511612062,-0.03606634885743868,-0.08158558249794669,-0.09091799459143725,0.7155507109915268,0.16320664210340627,0.11114895637745109,0.15906547918910624,0.3398074134465323,0.5936143257922055,0.6985326110771777,0.5276665592662044,0.3627806784680373,0.3224653568054562,0.3454775355647699,0.38233265049131765,0.388934458886259,0.36136517123903356,0.31873526248900624,0.3017135965236787,0.3063770386580272,0.10094887666389114,-0.009794261469301086,0.25638354283068476,-0.01487172686569388,-0.017999751480336057,0.05589215078114023,0.24845048515875098,0.5190007299310576,0.5892149631608624,0.3850945233108437,0.1682908506139834,0.0436520360197881,0.03811462156749072,0.06885393436854288,0.092735471363412,0.12444491025314758,0.19777763858839084,0.27400776318270925,0.35066873121773834,0.2689812004748477,0.33909833347610036,-0.3812794248516776,-0.051228052430583544,0.2130358421797303,0.3723302968854295,0.5432936993255094,0.6779210804860796,0.5562131931422162,0.30313053284748337,0.1176214859502278,0.08152185973739698,0.06645496459207588,0.07340487793200906,0.11217542498947902,0.1396495834362136,0.17249031289470562,0.2748903063321972,0.24790900493176854,0.21355738978781968,0.18604422357976053,0.21534752600690393,0.3308641996722695,0.38705848200225723,0.34374391272518956,0.7614775512523315,-0.2937979136654975,0.06550018151867411,0.29244214400276536,0.45760264098267794,0.6634051666551741,0.7476685245229869,0.536448094277202,0.2605391924780608,0.08997390171862583,0.011031333367646702,0.002640082183230424,0.00011829176942190256,0.0015046620541986635,0.06363842630315104,0.17916822738598884,0.12465042779095048,0.11274445413908833,0.49919040902672446,0.3025056888909297,0.4081221464647676,0.5484896524936357,0.7490786978587415,0.9824365504568651,0.9780645258844664,0.7006611632715403,0.31190190008784446,0.07145956037910596,-0.008446838269959766,-0.08710019286556642,-0.13856091608771465,-0.15109127513094203,-0.12617049403679884,0.02195734881909228,0.00861679750488813,-0.020153802667545895,0.8034604045090277,-0.12097530306333419,0.052499790395703023,0.2385521957123885,0.4631782524734814,0.7112127337544115,0.8582171045211545,0.7699491846878382,0.585584985853253,0.4555667722066711,0.4137128210531093,0.3796680951514417,0.3524562095006843,0.3041486360418859,0.2621855872182572,0.22852552336056414,0.23109582969030984,0.09349089339785507,-0.03533309939805595,0.771216631178832,-0.09662588973505847,-0.08104356961984438,0.032979509636135454,0.2136038040251875,0.4240895601479805,0.5336151022996476,0.3951864874970261,0.19599013917833508,0.10214031352477154,0.07296840911626655,0.07515538057231766,0.1033120712866858,0.0,0.0,0.0,0.0,0.0,0.0,0.0,0.0,0.0,0.0,0.0,0.0,0.0,0.0,0.0,0.0,0.0,0.0,0.0,0.0,0.0,0.0,0.0,0.0,0.0,0.0,0.0,0.0,0.0,0.0,0.0,0.0,0.0,0.0,0.0,0.0,0.0,0.0,0.0,0.0,0.0,0.0,0.0,0.0,0.0,0.0,0.0,0.0,0.0,0.0,0.0,0.0,0.0,0.0,0.0,0.0,0.0,0.0,0.0,0.0,0.0,0.0,0.0,0.0,0.0,0.0,0.0,0.0,0.0,0.0,0.0,0.0,0.0,0.0,0.0,0.0,0.0,0.0,0.0,0.0,0.0,0.0,0.0,0.0,0.0,0.0,0.0,0.0,0.0,0.0,0.0,0.0,0.0,0.0,0.0,0.0,0.0,0.0,0.0,0.0,0.0,0.0,0.0,0.0,0.0,0.0,0.0,0.0,0.0,0.0,0.0,0.0,0.0,0.0,0.0,0.0,0.0,0.0,0.0,0.0,0.0,0.0,0.0,0.0,0.0,0.0,0.0,0.0,0.0,0.0,0.0,0.0,0.0,0.0,0.0,0.0,0.0,0.0,0.0,0.0,0.0,0.0,0.0,0.0,0.0,0.0,0.0,0.0,0.0,0.0,0.0,0.0,0.0,0.0,0.0,0.0,0.0,0.0,0.0,0.0,0.0,0.0,0.0,0.0,0.0,0.0,0.0,0.0,0.0,0.0,0.0,0.0,0.0,0.0,0.0,0.0,0.0,0.0,0.0,0.0,0.0,0.0,0.0,0.0,0.0,0.0,0.0,0.0,0.0,0.0,0.0,0.0,0.0,0.0,0.0,0.0,0.0,0.0,0.0,0.0,0.0,0.0,0.0,0.0,0.0,0.0,0.0,0.0,0.0,0.0,0.0,0.0,0.0,0.0,0.0,0.0,0.0,0.0,0.0,0.0,0.0,0.0,0.0,0.0,0.0,0.0,0.0,0.0,0.0,0.0,0.0,0.0,0.0,0.0,0.0,0.0,0.0,0.0,0.0,0.0,0.0,0.0,0.0,0.0,0.0,0.0,0.0,0.0,0.0,0.0,0.0,0.0,0.0,0.0,0.0,0.0,0.0,0.0,0.0,0.0,0.0,0.0,0.0,0.0,0.0,0.0,0.0,0.0,0.0,0.0,0.0,0.0,0.0,0.0,0.0,0.0,0.0,0.0,0.0,0.0,0.0,0.0,0.0,0.0,0.0,0.0,0.0,0.0,0.0,0.0,0.0,0.0,0.0,0.0,0.0,0.0,0.0,0.0,0.0
0.004545191829693789,0.053996740236765754,0.13423848305484498,0.2456919113706679,0.21289400198109004,0.15773807968315412,0.9765114549884174,0.34644671561766177,0.2208156946051519,0.16306150236730568,0.2225210786911816,0.3789362216508541,0.4395380439887132,0.2549994947949106,0.051378904262530244,-0.04016802660209808,-0.06943110234139324,-0.0613110675478354,-0.04913774678711831,-0.026165679415822457,-0.0054685751352331405,0.03573396478663699,0.13287637248831713,0.244206466697898,0.19004810033985436,0.15936294335713047,0.3314106881350422,0.4767417315356897,0.6915219041860617,0.9154328645412766,1.0,0.8009619587605433,0.5376300215152592,0.3867113007106293,0.24231507705717237,0.1946781630334151,0.13157993727203515,0.07956567402944176,0.03818582669296297,0.025970721659412114,-0.008565615805399832,0.025653632892847913,0.28676972370906917,-0.5542858817651031,-0.14187991046421095,0.14815232111348325,0.4056876675400907,0.718493323644133,0.938135529833586,0.8191666608785428,0.6269145783079727,0.5604829917832421,0.545234792531303,0.5394292054830991,0.5489842983884494,0.5473380895285915,0.5020208791137166,0.5231231538456855,0.5052013703631993,0.34534007246757015,0.5543167017106022,-0.34833432984555496,-0.08540953962317065,0.15157770514953947,0.3542257000436476,0.6094551207273768,0.763346323997877,0.6539627272451556,0.44118496777835764,0.32706879273267214,0.27367276316867,0.25402018350927524,0.2326973138856599,0.23671314619480474,0.2580674537461867,0.3634145582457851,0.31150531969264666,0.28751219917019144,-0.02616018506974465,0.17736694885754697,0.3915401260747219,0.5244184567277453,0.6641607743233857,0.7685920971895164,0.6706861191166865,0.41683529191173974,0.2124412051925177,0.13974249585253695,0.11985532835571054,0.155721224954451,0.13935197017217055,0.15340484589751005,0.2341402196556115,0.16179492753452968,0.24214724523163392,-0.22202722836193442,0.08943779307463333,0.3228560018197342,0.5077559126176981,0.68505258843556,0.8290167136300968,0.8000339222680072,0.6200288973523961,0.44968919073130437,0.3290690883388011,0.1927746785638015,0.09393165123728012,-0.030325811692301783,-0.05517020853816327,-0.17295257155180613,-0.22889062738035465,0.5594286168618025,-0.029082515471733964,-0.010751831890749812,0.08046814224144057,0.27581619015726433,0.5145818251339349,0.5955991771675809,0.45899737513813277,0.32074917277314213,0.23317291581132696,0.18658312817521155,0.21009727719124677,0.22358989400347148,0.2738913819849752,0.3656526469196975,0.3369186255579318,0.2918780019131177,0.35707231661459715,0.3730722369446722,0.45629324766756874,0.5400948005501169,0.5359013084802747,0.30747291487915906,0.1179963388491135,0.043384756527727754,0.020362101259953226,-0.018987532293406238,-0.02912031005131396,-0.01383929829559085,0.048784014701601916,0.1296436160374285,0.07689416413751067,0.060510705860148166,0.436052774007412,0.29921139899060245,0.3117586669784679,0.37456719938293437,0.5078728732028873,0.6408043925795067,0.6147568926390715,0.34156019848416364,0.1202385865251639,-0.01633095015492008,-0.021774938181315907,-0.052174575009450185,-0.04765568572046083,-0.008654221695602142,-0.007726636209837735,0.0382096604833491,0.043946257398591836,-0.009927175259877689,0.35066585476514117,-0.3568522486722557,-0.048035268919509995,0.22858687200413128,0.48738398234990404,0.7612832144761434,0.9085907921129978,0.772003132107861,0.5598986598301923,0.4313032364553641,0.31663310601838457,0.20872635790480573,0.12783544510044134,0.021243180182669425,-0.035967773140127314,-0.01258037220073456,-0.009814269462084677,0.035607758343000964,0.019515699667770472,-0.0019827924425358137,0.5696337996451085,0.2033007939215696,0.16817328448706942,0.22426292543011045,0.3787458346612976,0.6050543050648642,0.6416851612028533,0.5173194542867803,0.35131854332766654,0.316185959085259,0.2912837372308117,0.28841244457437853,0.25104221649104563,0.16777261250813372,0.12210329113116102,0.03894236455738637,-0.00664763401512633,0.0005023348115184437,-0.07417130576041626,-0.14506099332121186,-0.0017041154536498254,-0.0789534874332497,-0.014912171251008107,0.09004923083249193,0.268845212874325,0.4725637621844323,0.5329267074663964,0.370649895644713,0.22278435630794124,0.1618835852004092,0.19343634051757266,0.24490056870355315,0.23445400550004014,0.2527827348721707,0.2408384207941901,0.23320746612675922,0.22693631165911934,0.2772763960459397,0.22268115191237597,0.10405884777206764,0.7915435824490027,0.05178376058527663,-0.03710220412683883,-0.02006958670557345,0.11805874415518544,0.03268024804581715,-0.015970241704008743,-0.03591254967422767,-0.0279946587330674,-0.017102816451154114,0.002669606230432093,-0.007478219279886735,0.002649246118005087,0.07818684639829326,0.23052670857718874,0.19183969552198898,0.17386369396961002,0.4381061194333125,0.27807970537723176,0.3087436288460795,0.35674176102042165,0.45834297617188946,0.5422594967821249,0.5418408753782535,0.2896276258510821,0.06103053910367991,-0.05792196668117605,-0.05585751043563792,-0.03232734695738154,-0.030780179659816727,-0.029706936213285174,-0.005908484985473712,0.04694577595899919,0.17736538950126857,0.12427035723833867,0.09391624034792023,0.5350836615840976,0.3148635376317541,0.3725679014549425,0.48760177160882795,0.6624919321029752,0.9056677020876461,0.9501302692063316,0.7199443525317629,0.47912766038114557,0.3018915929713625,0.25021342478548725,0.16589777912949874,0.051869438465829316,-0.03791180486797169,-0.07943306742571993,-0.09423051415062315,-0.03592557262459856,-0.015456074586725483,-0.05644719299254612,0.46027587323820585,-0.315229056437735,-0.05513796063269818,0.12538199881427167,0.32506266420037977,0.5831637356208885,0.7525148498503536,0.6610574838572412,0.4416790368306549,0.3491591198309537,0.3598978299014246,0.37057638077076027,0.36855770290381545,0.3538563877754452,0.3395604817602906,0.29489074712578683,0.3253024145731264,0.21780247407018252,0.07489056877756144,0.686151057173886,-0.08390270472687154,-0.05253828415558867,0.02104274254612772,0.1642705704536971,0.3581790718251783,0.47582464568819677,0.34175676358938717,0.17320323239757582,0.10008090434363369,0.07178230078443934,0.09759274176069495,0.1193117809781107,0.15761205410488957,0.23400916784312306,0.31096820933908054,0.42560882765542557,0.34088964935585514,0.27276297029009106,0.8517928537176624,0.3946360920504031,0.22905974121263248,0.16187651414134915,0.22217803917595919,0.40235994498677635,0.41686122752842725,0.21589601314162477,0.006964459662991923,-0.08594754623748033,-0.10967659025280342,0.0,0.0,0.0,0.0,0.0,0.0,0.0,0.0,0.0,0.0,0.0,0.0,0.0,0.0,0.0,0.0,0.0,0.0,0.0,0.0,0.0,0.0,0.0,0.0,0.0,0.0,0.0,0.0,0.0,0.0,0.0,0.0,0.0,0.0,0.0,0.0,0.0,0.0,0.0,0.0,0.0,0.0,0.0,0.0,0.0,0.0,0.0,0.0,0.0,0.0,0.0,0.0,0.0,0.0,0.0,0.0,0.0,0.0,0.0,0.0,0.0,0.0,0.0,0.0,0.0,0.0,0.0,0.0,0.0,0.0,0.0,0.0,0.0,0.0,0.0,0.0,0.0,0.0,0.0,0.0,0.0,0.0,0.0,0.0,0.0,0.0,0.0,0.0,0.0,0.0,0.0,0.0,0.0,0.0,0.0,0.0,0.0,0.0,0.0,0.0,0.0,0.0,0.0,0.0,0.0,0.0,0.0,0.0,0.0,0.0,0.0,0.0,0.0,0.0,0.0,0.0,0.0,0.0,0.0,0.0,0.0,0.0,0.0,0.0,0.0,0.0,0.0,0.0,0.0,0.0,0.0,0.0,0.0,0.0,0.0,0.0,0.0,0.0,0.0,0.0,0.0,0.0,0.0,0.0,0.0,0.0,0.0,0.0,0.0,0.0,0.0,0.0,0.0,0.0,0.0,0.0,0.0,0.0,0.0,0.0,0.0,0.0,0.0,0.0,0.0,0.0,0.0,0.0,0.0,0.0,0.0,0.0,0.0,0.0,0.0,0.0,0.0,0.0,0.0,0.0,0.0,0.0,0.0,0.0,0.0,0.0,0.0,0.0,0.0,0.0,0.0,0.0,0.0,0.0,0.0,0.0,0.0,0.0,0.0,0.0,0.0,0.0,0.0,0.0,0.0,0.0,0.0,0.0,0.0,0.0,0.0,0.0,0.0,0.0,0.0,0.0,0.0,0.0,0.0,0.0,0.0,0.0,0.0
0.08543389043320647,0.0633127354351077,0.06489806873919036,0.1336518249769866,0.19963753528370407,0.1569625740701146,0.17038726919379685,-0.3002144563237801,0.07471586879867746,0.36312550022196777,0.5421215283646938,0.7591039041558587,0.9168935233011373,0.8333577055466627,0.5472286153150049,0.2940016486547648,0.19142511862902004,0.1170157915133839,0.034819717929339404,-0.010119008719173397,-0.020565415327931845,-0.01824909986419161,0.031208660035447526,0.13413513709077302,0.08349520873356979,0.08396318041064067,0.670529295664173,0.305803850741814,0.29524806955146243,0.35003158151440317,0.4950440545528581,0.7263299926073205,0.7688823575056661,0.6313832345696905,0.4876690424951148,0.40844796075988155,0.3976512519182859,0.37623393213410145,0.3591864606856554,0.3085519711282992,0.25472674069495754,0.18898909333050393,0.1488445645157939,0.1911583924213838,0.06974166821595756,0.027162101249749663,-0.467648622726323,-0.1803839816508676,0.050927445678030064,0.25476197742874945,0.48251236208835385,0.6729622258437598,0.6487288965090684,0.4351204643697193,0.23563875736178144,0.17515549150475077,0.18532984353052226,0.2080931110979078,0.26242314049931087,0.30091737424100545,0.32753692623543573,0.3474267515817563,0.41195865286417593,0.39114479217514847,0.2865686526814298,0.6031886003401684,-0.19362339281096166,0.019478686595776902,0.1369773589139416,0.2612223903833891,0.42936884481018917,0.554899404178104,0.4548864807086951,0.27434537615076804,0.1578940025628641,0.11778528889335607,0.1279451946081296,0.14609936467434292,0.13392395691178666,0.12895652815265563,0.15055866374777424,0.20505250075592785,0.30350080653690953,0.29378272169159736,0.36436522159263934,-0.15882279521052772,0.1264764280626684,0.3178284372576979,0.4417141170680674,0.5680754414097587,0.7320820329364391,0.6287064369066265,0.35356440963928176,0.14648563304028583,0.03433089720662966,-0.019653296708411323,-0.01824070703003931,-0.013987747510699703,-0.029025224180406782,-0.02542509503835591,0.015777906935247717,0.15227275941456256,0.5717412810203366,0.3796438377294465,0.38675538973854157,0.4014415898328411,0.4896813051457007,0.5918047436028689,0.6058623321324885,0.3631270600605491,0.11843244382790048,-0.0010120440488692137,-0.047774965541945796,-0.061385982969931925,-0.06635584023100224,-0.0591362662468495,-0.042494530260113406,-0.004573019027299467,0.1056063282036571,0.1106453875782251,0.09273623162461997,0.7022461204476048,0.05369212552170974,0.2210378061115354,0.3638763110415633,0.519745786913409,0.734084866104344,0.8211871564142774,0.5894158663508796,0.34299974710104153,0.15897332950250037,0.049965642362986486,-0.018808911319684433,-0.061590184967159275,-0.07404582803506327,-0.09253451047108717,-0.07161900949212217,0.02861507485338728,-0.012292008607210381,-0.022450703066405044,0.7943118234438159,0.32138085476020745,0.2747557044078403,0.3024008193653398,0.470706330907142,0.7097460943416931,0.774160436955696,0.6046854237577053,0.40164397336847935,0.2456360578499074,0.1923673797987968,0.12329658491515864,0.04118174122529673,-0.04055158776517443,-0.07410301702547786,-0.023126651601955272,-0.07450967744554711,-0.08640118893530556,0.6622957659926557,0.1928637905539647,0.1347747112680546,0.17392743691931034,0.31863425283277735,0.5242611301430012,0.6161795269771395,0.4766548772886188,0.2989052420694921,0.2650830718173298,0.23413504157355414,0.26651528247311346,0.2709524959572933,0.2652258620604814,0.2426160600672307,0.307034715333741,0.22338334889155095,0.09754641413228575,0.7264638335289458,-0.07960119234551287,-0.08272751565186577,-0.036008928442055395,0.12733279640662493,0.3602861126012427,0.49572379879527306,0.37718494417386333,0.1615325587865906,0.05896832656948686,0.012595209482051601,0.015695512390442284,0.01413764624150183,0.034393456108065434,0.08317895348170899,0.2312186496601386,0.2457881220093829,0.21815630324788132,0.9887294260570852,0.27215582740203853,0.29569026062611187,0.3619429796096729,0.4499600812390648,0.5767169174403464,0.5801993785283366,0.40230578405059414,0.3460668982423371,0.3415226703894946,0.32463804831141274,0.31435047636480323,0.31418628065957405,0.308309567918084,0.18684544256047492,0.25004710511831046,-0.5250741766790743,-0.19577325983650604,0.03049092976572785,0.2284270764645418,0.435602877903309,0.5994986107978122,0.5431310676233685,0.3720214527325413,0.27150153691038864,0.22894848664656453,0.23608437875950442,0.23207981602975603,0.23947354022455142,0.26460340713975955,0.3517371399581621,0.5016784604808431,0.441414458125819,0.40288701346459904,-0.09870327776265383,0.14609639145523706,0.34272361707207544,0.45800236645700676,0.5808455080400045,0.6986189989690456,0.6331325991209917,0.39150163121431253,0.19024933897057872,0.11195293618847517,0.08548885011223402,0.0788493587496017,0.07583092297849653,0.08512187067525824,0.10158111653649199,0.16590051956127463,0.2796550203149049,0.21446164978523763,0.17458724804233902,-0.2572187177666348,0.07316572708067964,0.36485669719078234,0.5842837721067452,0.8144337081570197,1.0,0.9639765707044872,0.689374022772809,0.416023056433804,0.2363729338642071,0.10537072738999684,0.07358021987473744,0.012182340259661872,-0.010084721484816211,-0.009037501482144708,0.024005568180124538,0.08784903253056649,0.14731740439390684,0.10638700763918241,0.40836575652807255,-0.29410131523684035,0.024332625315984735,0.26328554584814534,0.47927276737383223,0.7003599959135467,0.8803288726461677,0.8686471088754067,0.702062646486518,0.5745749567577132,0.4992172125538359,0.4392351913745149,0.3507600999918261,0.24049570200804024,0.18073314002978091,0.10310132238680228,0.09727435688738237,0.12135245496562055,0.06587063258967606,0.19198141083863862,-0.47271285360223375,-0.09529243314476056,0.1578873851008193,0.358771584940411,0.5860213201266236,0.7333820098753993,0.690644990717474,0.5119658795435267,0.42692801450937207,0.42053582932574024,0.4347240599564871,0.41814229906995193,0.39055871212907445,0.34171061428789656,0.26172848316475994,0.25571962786235763,0.26916348466530043,0.3024592321026777,0.42712544930105617,0.5309506081856817,0.4432439868911903,0.24302505176705128,0.08240737564700303,0.028553535799504336,0.019423008135732688,0.02063319384942566,0.025064349811658698,0.02520151446967727,0.0467192826092647,0.09553636011560396,0.14201084607001463,0.23354783715482474,0.24212054550804346,0.41861654781677093,-0.32038201562973173,0.08642723968725542,0.33399513760596494,0.5120289300762082,0.6873175141161958,0.8302391036815115,0.6871381249332307,0.39709941915030716,0.17506652143029724,0.06568630523576013,0.04129867650816547,0.03907795480786672,0.04874858249728932,0.06477618964341127,0.0756994337023896,0.14038716414861283,0.18929539315461857,0.1457673563156338,0.2326427082082241,-0.25022886779009496,0.0421177231709102,0.30050296182813957,0.5174359765289537,0.7640523294201554,0.9328928989156917,0.883700176765436,0.6571747783549029,0.4627271156751832,0.305094611271705,0.1882221435385969,0.10261914662967228,0.028521116883652116,0.018074014474146183,0.026620418793342402,0.07351149063676692,0.12001631479234962,0.07801420125799714,0.08104351960981677,-0.33595736630583906,-0.052452968065788384,0.2199746680035325,0.4284056134612074,0.697720706030232,0.8951834932804494,0.9042537597504556,0.7395650796710858,0.5856460668844172,0.4863606056087694,0.43025351573164916,0.3825553851237616,0.29980211471530127,0.2060924017536925,0.12394298344434396,0.05413822734832442,0.13417176053153926,0.06137854211209299,0.003675132461214575,0.6580371153327123,-0.05503486088142394,0.05575738424001365,0.13695908235654033,0.31737171738210257,0.5527356054923096,0.6861816275139241,0.5758522803943823,0.3963739517192915,0.2911560444418727,0.2921834769289103,0.3397729719433163,0.3742397913306182,0.39397944097698584,0.3851369825759551,0.3733670337099127,0.3835320557606115,0.3642353985075472,0.235235080246116,0.2418622705718227,-0.3970624770169643,-0.10704265096857027,0.10161196428021194,0.09891854785775958,0.07888828227828763,0.08222713541337441,0.15240648749821065,0.21949922862632926,0.17762199839351456,0.19154429053389116,-0.2788509093516478,0.09600382681250846,0.3840626819445131,0.5624395672805341,0.778541149881231,0.9351949399937403,0.8502747747194285,0.5625192443290152,0.30743008613390505,0.20276187800683432,0.1260375838908874,0.04130939539122156,-0.006372498213510705,-0.019767060392761805,-0.020598181605960973,0.025518492174399703,0.124916088494981,0.0705653680652802,0.06714656570505564,0.6496559189786536,0.2807098022389537,0.26577562186597115,0.3160293152233495,0.4563670055379079,0.0,0.0,0.0,0.0,0.0,0.0,0.0,0.0,0.0,0.0,0.0,0.0,0.0,0.0,0.0,0.0,0.0,0.0,0.0,0.0,0.0,0.0,0.0,0.0,0.0,0.0,0.0,0.0,0.0,0.0,0.0,0.0,0.0,0.0,0.0,0.0,0.0,0.0,0.0,0.0,0.0,0.0,0.0,0.0,0.0,0.0,0.0,0.0,0.0,0.0,0.0,0.0,0.0,0.0,0.0,0.0,0.0,0.0,0.0,0.0,0.0,0.0,0.0,0.0,0.0,0.0,0.0,0.0,0.0,0.0,0.0,0.0,0.0,0.0,0.0,0.0,0.0,0.0,0.0,0.0,0.0,0.0,0.0,0.0,0.0,0.0,0.0,0.0,0.0,0.0,0.0,0.0,0.0,0.0,0.0,0.0,0.0,0.0,0.0,0.0,0.0,0.0,0.0,0.0,0.0,0.0,0.0,0.0,0.0,0.0,0.0,0.0,0.0,0.0,0.0,0.0,0.0,0.0
0.7495137935715558,0.7938150777967663,0.6549379646734408,0.5096222066427705,0.4297608963849233,0.4193574823884478,0.398056517728399,0.3811047715159666,0.32991938426733464,0.2754094822289198,0.20871436150596911,0.16797069998133896,0.2109973728415142,0.08750944089989895,0.04412231738944916,-0.45907525943477295,-0.1672045631242261,0.06774657366086813,0.2747316565678923,0.5060023825271828,0.6993249186985631,0.6743634569773277,0.4568501736361917,0.25368002894327213,0.19180763903394452,0.2017556416824555,0.22448988425263883,0.2793064700384876,0.31801498259736416,0.3446444520931926,0.3644274149951122,0.42959344337502287,0.4079905410080523,0.30123026189640145,0.6226863828509029,-0.18783799687710062,0.028384537609102277,0.14741670634524584,0.2733142987955595,0.44385206643366054,0.5710716718349069,0.4689980527305205,0.28506328999564773,0.16629542072179532,0.12515196090297787,0.13512481209861046,0.15323559957987806,0.14052226092766734,0.13514813587310623,0.15679771704071072,0.21189876113290107,0.31169862638402734,0.3015420098702444,0.3730364100648988,-0.15912064820905672,0.13069365388145188,0.32500818986743674,0.45074504303919444,0.5790115389174593,0.7455632554806405,0.6402902145525052,0.3604012866240563,0.14972220031755318,0.03556123261902589,-0.019447593830072992,-0.01812433796409691,-0.013901259161392303,-0.029278087898227893,-0.025695017438062708,0.01612899829193478,0.15484392814212494,0.5812585633386614,0.38592792583051955,0.39313612348573507,0.40805549573717864,0.4977640296184157,0.6015974555918868,0.6159072444086259,0.36915476275180337,0.1204194042677029,-0.0009699934317330113,-0.04845814581777521,-0.06223361603090225,-0.06721580953944274,-0.059797605288488716,-0.04279267741524588,-0.004146163929496322,0.10796904300758077,0.11319854254890883,0.09510350125038995,0.7148873845502549,0.05565032648048279,0.22591249505948868,0.3712634801108663,0.5298664607777521,0.7479167357534069,0.8366131602736836,0.6011253680901127,0.35075079557561195,0.1638070672849167,0.053133150698456866,-0.016636660943824093,-0.05998000281217138,-0.07249308630535706,-0.09114140043963914,-0.06973189715919377,0.03231334691757747,-0.00914062513244285,-0.019342029976494663,0.811145877612038,0.3304381755829349,0.28312418190617195,0.3113000778295763,0.4824596511655101,0.7255090495111411,0.7909977439063286,0.6186717095258953,0.41218907380413844,0.2534901364238045,0.1992061121395676,0.12881778037649508,0.04512645409560101,-0.038221330409843886,-0.07263146745510618,-0.02115548533697443,-0.07379783062040764,-0.0863475440102212,0.6743037756722549,0.1964648774824837,0.13675452006892722,0.1758341151379068,0.32215060601816,0.5303224185554313,0.6228074648216504,0.47990563152283333,0.29805064171477735,0.2624262527105872,0.22962511858838983,0.2611049659169339,0.2640700364828968,0.25659213351997007,0.2318364147223355,0.2954424169688559,0.20839095323950155,0.07832741798585777,0.7154673533197977,-0.10641526941493774,-0.1121133776371634,-0.06726965517328069,0.09600886117689475,0.32993227273843,0.46459376760570736,0.3409307516329041,0.11842545085272221,0.010787723749898942,-0.03982154764042512,-0.04022578846294505,-0.04544849602047933,-0.028562792317188394,0.017277578581077212,0.1639967906006889,0.17501425796716838,0.14314158549060582,0.9228104151511637,0.19061251882159613,0.21093697347268525,0.2747974344416471,0.36091483664096335,0.48657182516006314,0.11550830324172517,0.42350199863916244,0.4372415170011562,0.41582524454481684,0.4022354304432493,0.36754816072898766,0.32822947390892965,0.2328564746685837,0.14810407179870483,0.06311814268605895,0.01685447457570746,0.07678915345171194,-0.00855066091497828,-0.05278650791907327,0.7205564128272088,0.2089826643023486,0.11086718962880003,0.14702072722443746,0.272042158916162,0.491947076979398,0.5717304374530277,0.3972960734467982,0.239774102266089,0.19193839047685937,0.1838735944571774,0.2328320490558042,0.25523877261609085,0.2562930526572934,0.2516370691325872,0.24486075672859686,0.2524071533346412,0.2549668799257695,0.10990776587475669,0.0296980990645793,-0.40345978896794504,-0.1837431914510791,0.02083005506805031,0.2014472895759234,0.4047301803946672,0.5969596299347113,0.6086403247944122,0.42492800222383137,0.2736014274706588,0.2101084587841635,0.20794903255772312,0.21973369738685625,0.24507072094693927,0.22853453755231612,0.2741727771340955,0.3643171925576958,0.4371112985532626,0.3776725475393141,0.38203107245108997,-0.24676129981430242,0.0020819158807290255,0.12875318839572245,0.20999774242897545,0.4028999175880927,0.5901827276159907,0.530442244602738,0.3096561063264055,0.16845333380369565,0.08595548528284296,0.06016312003409656,0.055735367700050525,0.06143298471027347,0.057982472949970894,0.09560391839351494,0.17510816551763486,0.1394379549826032,0.13642453608043542,1.0,0.26655036098188273,0.26432153945190595,0.2967662089609559,0.3899918507360878,0.4889613059113101,0.4876197189025945,0.2425518015353919,0.01766240402007195,-0.08261925716237295,-0.10891978808620151,-0.08494412684003348,-0.06531767122259127,-0.049625014648001814,-0.0033001479146450123,0.1074242549687386,0.07770675024197037,0.08190901797077262,0.7764309017386115,0.07406907682410434,0.22877519636844795,0.37651450898103506,0.5554666093183248,0.7451611856312992,0.8375548118818721,0.6583200353189487,0.3842099608282136,0.18112853427401598,0.07438320278921479,0.017778122643025994,-0.030062536290833462,0.004371161876346158,0.04757025059851639,0.005137404218254507,-0.012860254944606344,0.6411173552801629,0.26909228426311155,0.2316179885547481,0.27763102021866154,0.45131538636003843,0.6839763449902397,0.777971584869919,0.6192087239002645,0.466367970377696,0.4041908590230995,0.41217150885293247,0.4063336085759106,0.3882606290323454,0.37520026233617876,0.35788613893537535,0.30375148326076584,0.24972162156657626,0.20580654219340808,0.10729900930577313,0.2461992865535784,-0.4926437721053051,-0.06502153380526553,0.2552894021898683,0.5040566800685407,0.723473848266205,0.9264079230184474,0.8810877380254801,0.0,0.0,0.0,0.0,0.0,0.0,0.0,0.0,0.0,0.0,0.0,0.0,0.0,0.0,0.0,0.0,0.0,0.0,0.0,0.0,0.0,0.0,0.0,0.0,0.0,0.0,0.0,0.0,0.0,0.0,0.0,0.0,0.0,0.0,0.0,0.0,0.0,0.0,0.0,0.0,0.0,0.0,0.0,0.0,0.0,0.0,0.0,0.0,0.0,0.0,0.0,0.0,0.0,0.0,0.0,0.0,0.0,0.0,0.0,0.0,0.0,0.0,0.0,0.0,0.0,0.0,0.0,0.0,0.0,0.0,0.0,0.0,0.0,0.0,0.0,0.0,0.0,0.0,0.0,0.0,0.0,0.0,0.0,0.0,0.0,0.0,0.0,0.0,0.0,0.0,0.0,0.0,0.0,0.0,0.0,0.0,0.0,0.0,0.0,0.0,0.0,0.0,0.0,0.0,0.0,0.0,0.0,0.0,0.0,0.0,0.0,0.0,0.0,0.0,0.0,0.0,0.0,0.0,0.0,0.0,0.0,0.0,0.0,0.0,0.0,0.0,0.0,0.0,0.0,0.0,0.0,0.0,0.0,0.0,0.0,0.0,0.0,0.0,0.0,0.0,0.0,0.0,0.0,0.0,0.0,0.0,0.0,0.0,0.0,0.0,0.0,0.0,0.0,0.0,0.0,0.0,0.0,0.0,0.0,0.0,0.0,0.0,0.0,0.0,0.0,0.0,0.0,0.0,0.0,0.0,0.0,0.0,0.0,0.0,0.0,0.0,0.0,0.0,0.0,0.0,0.0,0.0,0.0,0.0,0.0,0.0,0.0,0.0,0.0,0.0,0.0,0.0,0.0,0.0,0.0,0.0,0.0,0.0,0.0,0.0,0.0,0.0,0.0,0.0,0.0,0.0,0.0,0.0,0.0,0.0,0.0,0.0,0.0,0.0,0.0,0.0,0.0,0.0,0.0,0.0,0.0,0.0,0.0,0.0,0.0,0.0,0.0,0.0,0.0,0.0,0.0,0.0,0.0,0.0,0.0,0.0,0.0,0.0,0.0,0.0,0.0,0.0,0.0,0.0,0.0,0.0,0.0
0.31420311554885355,0.2352371527949889,0.1811349011009792,0.1914520165673073,0.22964041660120213,0.24634167361398082,0.2630245910600491,0.2932450600250797,0.3049713060001636,0.3784406042886509,0.27327726524352547,0.16390182163673997,-0.25448836014532705,-0.11124703511404287,0.0616682610401691,0.1862903323209237,0.3613458758053476,0.5348619778738593,0.5248863073286453,0.3310557671522843,0.18696433542375232,0.13557050569820606,0.13996153670925013,0.14966112820590646,0.1352900952238198,0.12360376251177359,0.1492684590284399,0.2055077589212905,0.35411238905199816,0.33814434214016736,0.29549437996547917,1.0,0.3106080189465848,0.30996748604862884,0.3229400673250817,0.3770184709374919,0.543019660630022,0.5745379952436572,0.3709660906906616,0.11613744726834846,-0.017795437197913544,-0.06476108943759343,-0.07677018712303178,-0.09226437449101856,-0.05436108798807506,-0.02748143573740838,0.004205685139120438,0.07800855004846455,0.14307668601079934,0.11954973424887835,0.1227214102243602,0.29651758070679113,0.2800229233877604,0.3848134895019738,0.49372618771736265,0.6267318007474031,0.794379975221817,0.799253046753159,0.5735302432048467,0.3315700730614139,0.23536038611852445,0.14737374932194708,0.10451527404166115,0.0649492748733626,0.049756242421183886,0.04309516612784667,0.09618569891890603,0.1739722843762974,-0.3625260719210624,-0.08809607529665388,0.1089085357932985,0.2624183089994084,0.4783218667691198,0.668105223232222,0.6332419650602862,0.4317668398134591,0.2791915486531357,0.22638732683129859,0.23305131269893395,0.2200746027647942,0.21534319054505124,0.20831380597537608,0.2434471201999288,0.33920724062406893,0.3927446206252926,0.3403896741486047,0.5732041160378348,-0.1995493011862773,0.05165795944291465,0.21204544962777477,0.33361698683564217,0.46046364764624304,0.5217670976300209,0.38567373494493784,0.16558944938477999,0.06722114341225031,0.023510282109270374,0.03709613360287892,0.02773357488392831,0.03272226727373915,0.05394754380317167,0.11100166870304254,0.20011834118346725,0.1672087728992838,0.18331557538481194,-0.18293744615156654,0.10751495965419444,0.35732989162247714,0.5190519652431285,0.671057406526151,0.8092123193350581,0.7462805569635993,0.4954511700398385,0.30386917731699004,0.17303827312299186,0.07319065649654818,0.014869557983047564,-0.020391653580075587,-0.0382502959673477,-0.0025428662557047082,0.04566469914294808,0.012562167653233454,-0.004650345680625275,0.5561326368457252,0.2271058252887021,0.20066958441472088,0.22439955619918767,0.38682614106150387,0.6186217509141039,0.6801673559918137,0.5484701848354596,0.3862701873186073,0.3039367799262448,0.24908287420777306,0.20774802523618047,0.10569107097206557,0.003545128560217257,-0.07008068264950285,-0.09147496810833992,-0.07308735862149866,-0.14603400477768722,-0.16112457047075815,0.535308982408683,0.12172419220433657,0.06293736835134256,0.08658518666660626,0.20098029837409048,0.39522084016808107,0.4726678216718525,0.34329959197034826,0.1834520523750235,0.12801725090698549,0.16043414568580797,0.20461507644301663,0.2270439576261343,0.2307481103242254,0.2330700949348454,0.25511878509612446,0.2776899923976679,0.1598890693447805,0.06711504555836208,0.1851104729120469,0.03578988562981167,0.04073800747619589,0.08279160496526965,0.23692805695849983,0.4394815434538856,0.4636537395263785,0.2310823218995835,0.18821079949928227,0.3052736994253,0.40180592847841795,0.31956892227956446,0.12900735317438336,0.036193106984449004,0.007963271193058482,0.02999208722360479,0.04274415290961097,0.04922386801085807,0.07767744733990792,0.16313230015600919,0.2844801893123939,0.24090388700107518,0.23696419018229464,0.6580591063909146,0.41462213522995384,0.37842679638117926,0.39008882368145115,0.49554900930502327,0.5802521015860569,0.547347465924959,0.2656976169333808,0.07170498484340035,-0.05538519841174916,-0.08471376178233049,-0.07809596036046067,-0.06531553209131517,-0.04261833967181203,-0.003983560634645014,0.04041356821091857,0.1003657634938406,0.09599982562443889,0.3599796876175285,-0.29520412439561006,0.05260436203940005,0.30860160528292285,0.5270612299169916,0.7419109958175317,0.8684008176488452,0.7852324708033309,0.5801978061218013,0.3957130195090443,0.2773675044658747,0.18899464243757225,0.14528723227709728,0.05657829248700307,0.014415276925849882,0.030851803258973326,0.11417395009419821,0.05076383659200211,0.025977764344372475,-0.2860734882147063,-0.09723928622106552,0.10800783594642653,0.2743190707913624,0.48762508257038634,0.7019938196053725,0.7358619807722404,0.5851104497888541,0.47731565040243173,0.39629596712908066,0.36806302809526814,0.32293281862702183,0.2669455700558644,0.20727013914356315,0.1450461007542335,0.14093797170308814,0.0073334695186220355,-0.10393161796106119,0.4065535377925824,0.04575847749433252,-0.0029407475166942326,0.035175781063159,0.1838578283610025,0.3809567364553647,0.4290708635132029,0.27584414169114924,0.13565502005525057,0.08122380996050145,0.0891997364680789,0.11890127040692976,0.1356743837771204,0.187371980959028,0.25892958937630384,0.335658546290807,0.26799357639213306,0.21190929824647803,0.4190726517727604,0.18571989092981278,0.19941073044310006,0.19378131681748845,0.27356229714511887,0.39692888404574034,0.4210868072334352,0.2597518164947576,0.10128589910632307,0.048151496415987906,0.043446690040476243,0.0027668118768090556,0.08131787658818103,0.04588003924961999,0.016621451176404817,0.7579468880561917,0.10806943822869088,0.17034776963210022,0.29864260703155326,0.5159159593013419,0.7358717996500641,0.8605323740650299,0.7143064293633526,0.4915636672468638,0.33920013392305864,0.24097809749833318,0.1482579140407286,0.035003536614555686,-0.031011895175403967,-0.044932115326858535,-0.0463540220847633,0.030242083630302608,-0.013342384148973286,-0.007224638544295456,-0.48754393741391683,-0.1560591791651004,0.10151644551010959,0.34172806352134244,0.5502919149508282,0.750973947749853,0.7531684871840503,0.5953280961017845,0.5253727356595989,0.5022546729211794,0.4822863211997455,0.4443823844219085,0.4062600649882736,0.35888532782152777,0.3071617343741999,0.29856342855890533,0.20801303074400893,0.13384246046151438,0.46485430142309875,-0.3112133705481247,-0.07101916711380349,0.10985165166039293,0.3097957088486144,0.5442923796819454,0.6660649168282761,0.5636247878142961,0.3846818581435914,0.2701617346297813,0.23666169030003115,0.20847470633524184,0.24062368485294072,0.25551564786148245,0.3108084788732265,0.3262694923130755,0.36256771365765617,0.4351609332626196,0.3259221758152263,0.23302739161251174,0.3659533022840104,0.1497888388518318,0.09465159313590871,0.14892908112606867,0.2568641318749348,0.3902013387519454,0.3959808537306037,0.20902285843795823,0.06629640648310761,0.013005437021536127,-0.0017168502920214249,0.00931409567935877,0.03177600238092773,0.06151871153649874,0.1060710536313642,0.13792410863278542,0.2000200586998147,0.19515062467306793,0.3907973310658798,-0.23817719458592437,0.15126033399817232,0.3844247780501167,0.5506154146680131,0.7086131162789534,0.794753325346356,0.6379951323059624,0.3656770387320789,0.16126961424213027,0.046617266578035194,0.011540127794068652,0.01006716053747404,0.01431111126426128,0.03443609260401162,0.11564358855522326,0.12003601565319989,0.11240493579989005,0.570455691848591,-0.13562796461405371,0.0,0.0,0.0,0.0,0.0,0.0,0.0,0.0,0.0,0.0,0.0,0.0,0.0,0.0,0.0,0.0,0.0,0.0,0.0,0.0,0.0,0.0,0.0,0.0,0.0,0.0,0.0,0.0,0.0,0.0,0.0,0.0,0.0,0.0,0.0,0.0,0.0,0.0,0.0,0.0,0.0,0.0,0.0,0.0,0.0,0.0,0.0,0.0,0.0,0.0,0.0,0.0,0.0,0.0,0.0,0.0,0.0,0.0,0.0,0.0,0.0,0.0,0.0,0.0,0.0,0.0,0.0,0.0,0.0,0.0,0.0,0.0,0.0,0.0,0.0,0.0,0.0,0.0,0.0,0.0,0.0,0.0,0.0,0.0,0.0,0.0,0.0,0.0,0.0,0.0,0.0,0.0,0.0,0.0,0.0,0.0,0.0,0.0,0.0,0.0,0.0,0.0,0.0,0.0,0.0,0.0,0.0,0.0,0.0,0.0,0.0,0.0,0.0,0.0,0.0,0.0,0.0,0.0,0.0,0.0,0.0,0.0,0.0,0.0,0.0,0.0,0.0,0.0,0.0,0.0,0.0,0.0,0.0,0.0,0.0,0.0,0.0,0.0,0.0,0.0,0.0,0.0,0.0,0.0,0.0,0.0,0.0,0.0,0.0,0.0,0.0,0.0,0.0,0.0,0.0,0.0,0.0,0.0,0.0,0.0,0.0,0.0,0.0,0.0,0.0,0.0,0.0,0.0,0.0,0.0,0.0,0.0,0.0,0.0,0.0,0.0,0.0,0.0,0.0,0.0,0.0,0.0
0.08842621927639016,0.4557997957159935,0.5888462565502368,0.4462111147418222,0.27641699497785294,0.22481372342436357,0.23500324988777951,0.2940266390387497,0.2932717159584002,0.31417588092583804,0.3521299792061568,0.41171256649776145,0.2631737643748972,0.22227079014022144,-0.355102657346152,-0.1457124004465417,0.020493783817721403,0.12683335727873482,0.3099175993799883,0.4703597035034277,0.42857394925929687,0.22802118359525195,0.06211247382852658,0.0035440062897551003,0.0005386644204100014,0.0013193139419323966,0.005067559707503945,0.043545179173366755,0.13431230788376639,0.13495182989476545,0.09769164368842179,0.9297798296753754,0.29255920339360486,0.37935439707153074,0.4638032903285394,0.608566975090256,0.7601851240415315,0.8217541280995001,0.6086507101797488,0.334728137715009,0.1403223843827312,0.021663111452082266,-0.0308684458914217,-0.05988903458257568,-0.05162369736214706,-0.0014810688253345079,0.03874634899224516,0.021025446202624726,0.015530492436032424,0.5656836398003507,0.2834871086600997,0.2871079217023877,0.3459758042351128,0.5557385326279904,0.8240795810661553,0.9204227307462125,0.763722311101062,0.548188794226313,0.42542398388342556,0.34528044861525553,0.2429893186654176,0.20582083414022437,0.0808696222534031,0.013045534567540554,0.03782203175476448,0.05199790035853944,-0.006694190885729519,0.3420634588232414,-0.4555835407164022,-0.09984086315472497,0.15663648171951036,0.3832063942153064,0.6542383267207383,0.8122793097483878,0.7261878627419805,0.5012335902485744,0.39806485898184213,0.40540834155212985,0.441398331979623,0.45131724657582445,0.4451879584547138,0.44556192229774216,0.38518402674502267,0.40606192979391315,0.37911756479650877,0.2370896363535284,0.46156566461009935,-0.3471645172129175,-0.04049771319915257,0.19950547194239251,0.42591122813555515,0.6583691793669356,0.7774345165608798,0.6941508449698495,0.5233928499739746,0.36541243501983833,0.34092592224082385,0.3576235580951721,0.3507617283496612,0.38424496903130595,0.3774537289857605,0.30448452910500734,0.37501176030201816,-0.4364146562829657,-0.06054734520875573,0.19108239448886125,0.3899358533356845,0.6296111805170848,0.7856679916647173,0.702335658970075,0.4903287843534627,0.32551881645615055,0.27475646033826273,0.2720639090365794,0.2798652149539741,0.2818854950350721,0.3261734360874371,0.3479987721078222,0.43717661012148157,0.4801030444646817,0.4408631801436025,0.7814316909563711,-0.1004656921349477,0.17602860913061374,0.3173222759836582,0.4224159229933737,0.5669176802306541,0.630952490488997,0.4725046479019552,0.20685516859668282,0.0344924056222814,-0.025793475476697688,-0.024549786068226144,-0.028611476739920576,-0.02628458008650975,0.007911511356642316,0.03471723829514274,0.13266288052185896,0.11880172143617782,0.11677422128370675,0.99580511644683,0.4736127637802852,0.4661590172091698,0.4843178262938531,0.6095316403982716,0.7553272560375971,0.7671442014336749,0.5171506828999712,0.24299385051197697,0.050744467977877204,-0.04876228593154548,-0.0847901682597011,-0.09871144718141651,-0.09262704292392832,-0.06528694128600308,0.0008577611024856368,0.12377986447621,0.05746917434300701,0.03083364333677035,0.2088736621616321,0.12002288914534733,0.2960163797539222,0.4156562056768024,0.6393448382288894,0.8689297098726319,0.8863767046758524,0.6511675692352971,0.40347039290715675,0.2372568974165631,0.12077071099452043,0.07321301741260855,-0.009435511922569736,-0.07247062172258233,-0.11047512372993307,-0.09839329853725948,0.0372936425938773,-0.00455822503047048,-0.056857360229059815,0.7137111063826564,0.0010747935304874323,0.0603828393329435,0.17363417726574637,0.35796994390771864,0.5699646899238942,0.706878542202055,0.6258700957146811,0.46562057489475644,0.4115898705986144,0.38483486053656035,0.36071066313559746,0.31289969422793185,0.2727244215994921,0.1796129354105735,0.1116665711003532,0.13737879012549176,0.04496941557194928,-0.04736367832072778,0.6439646638016081,-0.07520074308263396,0.03272145654159487,0.0951657325106192,0.38989733356350226,0.37474652275328346,0.24894953774048414,0.21466460468887583,0.2560121211400928,0.271066322657312,0.26315920523421776,0.26736619952226426,0.27239731920817506,0.30580683942415804,0.21386821469224138,0.08636932528723569,-0.20410421252132335,-0.1392113547896504,-0.013843063849156099,0.12606890770103885,0.32857540850565925,0.527278335061062,0.502901715511373,0.31184538099052966,0.1629651789939561,0.12644078888918112,0.09451317343524254,0.14237290023131113,0.16225982726661295,0.21098477508451768,0.3202960766218509,0.2792604443148297,0.3322301087038647,-0.14817273686552596,0.15253465902061908,0.3952157401696799,0.5481368594193986,0.7466402355782024,0.8549815480450921,0.7499435811715953,0.45700412382545247,0.2777333491431081,0.17954346114161607,0.1381991672737535,0.13489430714159686,0.21055235788404192,0.1934895681606047,0.17809259733265884,0.58830818075615,-0.23287235940106316,0.08996307534990107,0.284939414433975,0.5187213575059262,0.8050959540482617,0.9978706261744144,0.8781699092265633,0.6819827741732105,0.5972589215441125,0.5396077594146563,0.4914668463853757,0.4440426297255992,0.4674833797387591,0.3048802707034654,0.15795081590699397,-0.39311856818844837,-0.16461266580575412,0.04901943523143414,0.24069861596045625,0.4576458109875261,0.6618710519805913,0.6073701690270586,0.3776967263014885,0.22556756620259932,0.18148411271979462,0.15732139414958293,0.183578799222973,0.21974684719301382,0.3080186712332043,0.31766073926169297,0.5314556381755017,-0.21053279952849024,0.15970050976253922,0.4099755751968741,0.606306440143977,0.7737710267933351,0.8229959039984052,0.6433013468962131,0.39634039818476346,0.2567114168141537,0.21647823759353643,0.19502455048349693,0.17271637540145834,0.19967375619770986,0.26962710144899593,0.22134112286247454,0.25070807139035856,-0.24626607753218835,0.09543576654165267,0.38613861087960416,0.5995417343607573,0.822120028554484,1.0,0.0,0.0,0.0,0.0,0.0,0.0,0.0,0.0,0.0,0.0,0.0,0.0,0.0,0.0,0.0,0.0,0.0,0.0,0.0,0.0,0.0,0.0,0.0,0.0,0.0,0.0,0.0,0.0,0.0,0.0,0.0,0.0,0.0,0.0,0.0,0.0,0.0,0.0,0.0,0.0,0.0,0.0,0.0,0.0,0.0,0.0,0.0,0.0,0.0,0.0,0.0,0.0,0.0,0.0,0.0,0.0,0.0,0.0,0.0,0.0,0.0,0.0,0.0,0.0,0.0,0.0,0.0,0.0,0.0,0.0,0.0,0.0,0.0,0.0,0.0,0.0,0.0,0.0,0.0,0.0,0.0,0.0,0.0,0.0,0.0,0.0,0.0,0.0,0.0,0.0,0.0,0.0,0.0,0.0,0.0,0.0,0.0,0.0,0.0,0.0,0.0,0.0,0.0,0.0,0.0,0.0,0.0,0.0,0.0,0.0,0.0,0.0,0.0,0.0,0.0,0.0,0.0,0.0,0.0,0.0,0.0,0.0,0.0,0.0,0.0,0.0,0.0,0.0,0.0,0.0,0.0,0.0,0.0,0.0,0.0,0.0,0.0,0.0,0.0,0.0,0.0,0.0,0.0,0.0,0.0,0.0,0.0,0.0,0.0,0.0,0.0,0.0,0.0,0.0,0.0,0.0,0.0,0.0,0.0,0.0,0.0,0.0,0.0,0.0,0.0,0.0,0.0,0.0,0.0,0.0,0.0,0.0,0.0,0.0,0.0,0.0,0.0,0.0,0.0,0.0,0.0,0.0,0.0,0.0,0.0,0.0,0.0,0.0,0.0,0.0,0.0,0.0,0.0,0.0,0.0,0.0,0.0,0.0,0.0,0.0,0.0,0.0,0.0,0.0,0.0,0.0,0.0,0.0,0.0,0.0,0.0,0.0,0.0,0.0,0.0,0.0,0.0,0.0,0.0,0.0,0.0,0.0,0.0,0.0,0.0,0.0,0.0,0.0,0.0,0.0,0.0,0.0,0.0,0.0,0.0,0.0,0.0,0.0,0.0,0.0,0.0,0.0,0.0,0.0,0.0,0.0,0.0,0.0,0.0,0.0
0.739290273692381,0.52154278053475,0.3319391409122128,0.19101315470367392,0.07707563711263903,0.01179889014787723,0.03397158381011797,-0.04698216605431796,-0.08995377037330846,0.4843587095067843,0.1430583919717526,0.10561991553333709,0.16283885544978915,0.30330385337924864,0.5060934293577192,0.5494480140255562,0.3858160196343444,0.25292233403136705,0.1800458971651408,0.18733544924176768,0.22571107216305053,0.22288920102957016,0.19407077072284892,0.16206304762069124,0.13940227572495997,0.18769191505003202,0.08896109021985218,-0.03394843438674492,0.5138845956636187,-0.24016625975740635,-0.16451292433722256,-0.05032523699528406,0.12257670182169343,0.3473711394693894,0.4612830686030874,0.36239531256067065,0.18385846788135302,0.090392219788277,0.06109365322043886,0.0784827518297651,0.0752504228779351,0.10352408250677747,0.15799455374173826,0.21775687780616212,0.28510801607460107,0.3684297978910477,0.3269966865905856,0.25971585054135476,-0.033860174700938106,0.04460167178031344,0.15848256131121985,0.23171846573286803,0.37348587316823073,0.5046758260763446,0.5085206420725591,0.3340545227938768,0.1904837785003114,0.12953891817391797,0.10367232883101152,0.08739734302594897,0.09478549385133622,0.08209128825168165,0.11283374703027331,0.12234601640641926,0.15398641081116998,0.2294314120099755,0.3623689135968301,0.30669138307956134,0.2643680421221429,-0.18644398833591472,0.017004166442028755,0.20678514150117538,0.31443822711812364,0.4476140532077124,0.5427941437921835,0.5094513517283934,0.2707492185985965,0.08533710478315237,0.004560114989002458,0.0017866063291207567,-0.013137260502191588,-0.05657310810347965,-0.047886375269379486,-0.05478232222385687,-0.006886516132714911,0.04255968359668824,0.11030407444506896,0.22906987757352865,0.17444808977349024,0.18456127577804837,0.700649934738916,0.4340204357253263,0.40293362655542075,0.45143890375313916,0.48368247211835663,0.614534531857784,0.595607321021559,0.36375131368185315,0.12435684763696911,0.002934259534625844,-0.056824693782359006,-0.04694535193013908,0.015067399914379432,0.10714866881735145,0.21217832637041897,0.28983299829790415,0.25186133999608795,0.31012430011948844,-0.2474427416748525,0.03255353112064775,0.20071814120263007,0.2932005703233817,0.45721800740187646,0.572964822779957,0.48031363721530657,0.2576276369321976,0.0996615295037095,0.02733859458347544,0.022783639211816444,0.04339713442364719,0.03212529004534061,0.04146132048653263,0.07406950860842812,0.09685893403687981,0.14140159655963824,0.23850826707555495,0.19799270485205658,0.20167158319307663,0.6436083272288362,0.41691626931838266,0.41546380660065174,0.45171881093711164,0.5694134335157279,0.7069144406297334,0.6629891184642247,0.4410415144796193,0.2030876090874299,0.04876012076484199,-0.0368013088804261,-0.06084983609897289,-0.056880809517943956,-0.06446975378388518,-0.041406745986851075,0.0069777242704187675,0.04150396658287573,0.1013489488624077,0.15798316261471376,0.12467963114225161,0.2129224687693228,-0.2984777061023333,0.04730043359349399,0.3236937565865266,0.5181735250701214,0.7616097387809648,0.9570268006166178,0.9203400493867593,0.69834602311548,0.48732297089256726,0.32987524204349133,0.22980677497320395,0.19320209249313255,0.12040106978303798,0.05362148283587418,0.04306832387864755,0.035104679918730515,0.051407137450518794,0.06154110274034142,0.13016479929742975,0.1800572761018457,0.15301554616537244,0.18558633833596402,-0.36544759270059085,-0.020446629994962155,0.24648187223876203,0.484814353751081,0.7390811820206464,0.9005202647172543,0.8866115026056817,0.6741683721992217,0.4727877627876415,0.3570310273432503,0.27136982928643266,0.17891228944103973,0.1287293109296214,0.08088378478852015,0.03613779419876022,0.04394067195307954,0.0495195607459108,0.0734150983969698,0.12437613391762352,0.17235317493808228,0.1355654748003341,0.22435734926431933,-0.2550725139782253,0.005753222987672438,0.22442961272818548,0.4112475462296944,0.6400189659486137,0.8487608480338011,0.8164913483454825,0.6219577490657578,0.4523093545975778,0.20903276442226415,0.07851116701302016,0.04743124969418866,0.027926336999863185,0.04205711017393802,0.04874230950763904,0.09971130550254494,0.2033307830776498,0.14849211316043545,0.13412698631374637,0.7102499808764137,0.35004226230794083,0.3132888934777147,0.39495947085641725,0.5691773764111253,0.7819164673250993,0.8289006975345453,0.6420233937602732,0.42133620768522745,0.25848147619779177,0.14620263225557825,0.06468953060404381,0.02265921725906103,-0.03241152504656218,-0.086861247178206,-0.09621526484010813,-0.07228574189094926,-0.040188732138252796,-0.011720391845059798,0.06599023116458275,0.1199119721590008,0.10478051414471234,0.3606480775452195,-0.2893583620106072,-0.004239826828966782,0.22135467484079221,0.4311929086550681,0.6762686071420577,0.8793878827378759,0.8500025219955227,0.6596364272403776,0.5258722128771237,0.4494769857731231,0.37872384643289225,0.3174180033547151,0.27354686668590106,0.20831046693867677,0.13311661011003062,0.10539710859545354,0.07721998290670856,0.08699723801497491,0.10467347931093275,0.15078239271528152,0.10397827395766832,0.20845244238267466,-0.34903928853440336,-0.047777732486779856,0.15980877972718482,0.3231970867929363,0.5009921634827662,0.6833303551029475,0.6979265311311051,0.5204569679705735,0.4160577704960579,0.3721906644039423,0.3580574248402686,0.35008503964292953,0.3106249313694621,0.2792423484664199,0.22513211128954325,0.14943891694043615,0.07232495171586392,0.01737500539203644,0.058002277042385836,-0.008910781136821202,-0.028551675376092107,0.6738618647736013,0.09643496737670958,0.07560624136934774,0.12335870584695097,0.26365611378967363,0.48128325478136197,0.5978438846632336,0.48058402851395493,0.32805099297937534,0.22391724805666507,0.21039304310256446,0.26084012210987473,0.2702624839006237,0.24701376763630717,0.2112378023765466,0.1903042557572979,0.1434950980420349,0.07307341754687494,0.015154719555623235,-0.016968193841864515,-0.003916639575500564,-0.08987041035595625,-0.12460076884662984,-0.1305594629118545,0.2524681275541214,0.5216442836535475,0.7473510758993731,0.6587740160715502,0.4080688735858172,0.1705908341118083,0.025458851804856658,-0.03379273898460576,-0.03493057983881031,-0.031583418233561034,-0.011191903541679005,0.010658765302284537,0.01800408029750037,0.031395220672291085,0.07518699860572148,0.10945115108842637,0.18098392291812118,0.21181889818325617,0.1757193884602199,0.513925199384456,-0.14670059924102283,0.16303386750466461,0.38457092606903626,0.5552046757167383,0.7243992063654462,0.7822398394185404,0.5994092871305375,0.3455589760886421,0.10323207979443536,0.00898291014485658,-0.004133916079735534,-0.0026834547164188505,0.0042058479840245515,-0.0032446236201912108,0.012622710664176074,0.038115479159174126,0.0614431085588692,0.0856493545673916,0.11301692107910011,0.23597631815768347,0.18674492541492768,0.19012106734412174,1.0,0.41972812011588306,0.3720788021735914,0.382717105599659,0.46608463121855936,0.5879334122386002,0.6044659298759978,0.4076367216086568,0.14386636935433816,0.004457347906688707,-0.05930350675165117,-0.06912294782966161,-0.05659177442815442,-0.02818964735835002,-0.021201007279160917,-0.003299486461073114,0.01524159964431114,0.04583046997212169,0.0633595267265118,0.12640284832444368,0.19882149440377064,0.12998383115668277,0.18234154533409083,-0.27248624607407707,0.05533615656208892,0.2883089901082626,0.456880887961308,0.621928825742287,0.7480933034978897,0.6577524725099066,0.3973200265939683,-0.05754287645992796,0.12161762466847294,0.20183257821824951,0.2348404732872778,0.32867388978346784,0.19729853360188804,0.056769899459110526,0.7439100844696722,0.04115135607031606,-0.03895742164385969,-0.03426384248630885,0.08908776324745132,0.27556883050506564,0.38102360356771714,0.2677612779233802,0.10390847082195555,0.03286626139452066,0.007849060672619763,0.0,0.0,0.0,0.0,0.0,0.0,0.0,0.0,0.0,0.0,0.0,0.0,0.0,0.0,0.0,0.0,0.0,0.0,0.0,0.0,0.0,0.0,0.0,0.0,0.0,0.0,0.0,0.0,0.0,0.0,0.0,0.0,0.0,0.0,0.0,0.0,0.0,0.0,0.0,0.0,0.0,0.0,0.0,0.0,0.0,0.0,0.0,0.0,0.0,0.0,0.0,0.0,0.0,0.0,0.0,0.0,0.0,0.0,0.0,0.0,0.0,0.0,0.0,0.0,0.0,0.0,0.0,0.0,0.0,0.0,0.0,0.0,0.0,0.0,0.0,0.0,0.0,0.0,0.0,0.0,0.0,0.0,0.0,0.0,0.0,0.0,0.0,0.0,0.0,0.0,0.0,0.0,0.0,0.0,0.0,0.0,0.0,0.0,0.0,0.0,0.0,0.0,0.0,0.0,0.0,0.0,0.0,0.0,0.0,0.0,0.0,0.0,0.0,0.0,0.0,0.0,0.0,0.0,0.0,0.0,0.0,0.0,0.0,0.0,0.0,0.0,0.0,0.0,0.0,0.0,0.0,0.0,0.0,0.0,0.0,0.0,0.0,0.0,0.0,0.0,0.0,0.0,0.0,0.0,0.0,0.0,0.0,0.0,0.0,0.0,0.0,0.0,0.0,0.0,0.0,0.0
0.22803822280610794,0.08095784242927424,0.03873152143283747,0.019396663643019535,0.0032625628167561567,0.007726936100120571,0.03141428265636316,0.07294906301405386,0.0979880069659441,0.13171226534242403,0.2034234457418993,0.2893080729643517,0.21032932868929274,0.21373799085533102,-0.3172413740335216,0.06337750069992358,0.353310792113741,0.557616889013105,0.7614819329724365,0.9763701197043606,0.927107099818537,0.5811916148814538,0.26601378342719023,0.058956717743344766,-0.04455885114485287,-0.08345370956285067,0.02332092675579229,0.022567203860261516,0.028309291179177822,0.08130997049535331,0.14815484130023232,0.23847009548615794,0.3014406324531905,0.40529973081682075,0.33072865836095366,0.26363308266248764,0.0030059100658291218,0.10563504006372978,0.21071089012677932,0.26283128891367635,0.35815227379142056,0.5067465700690644,0.5030222345729741,0.2778339147298981,0.0926252454345861,-0.010487469049592647,-0.028308439828197106,0.008933661670807252,0.02568243953268126,0.0429947593297873,0.04392307191471178,0.0724180478518818,0.12526819243156287,0.2954170720416297,0.2751600301129593,0.2535939527949524,0.857092584457789,-0.07602098797816009,0.10263261117478467,0.22132238123520795,0.323080321298458,0.4756630040962805,0.532536158140181,0.34212642098347135,0.10817495032615126,-0.018235348033420848,-0.08291178522294713,-0.078087632807408,-0.05185000777465217,-0.016105854350077865,0.022279521634828242,0.06056329111279348,0.12897008728334217,0.18766814649268182,0.13821604038875204,0.23932011697648292,-0.2576564954540008,0.12395935713419161,0.3919603450551188,0.5830015469360323,0.7914293355151678,0.966896150773692,0.8516294912408777,0.5225644702524698,0.23657994924830045,0.05457826672966498,0.015024312887613843,-0.026312599035048474,-0.019520852671140156,-0.011299638111980833,-0.007594706854941179,0.01770107079751169,0.07192234437005347,0.17614016390884135,0.11882067232722932,0.08632943064842016,0.26915235250030556,0.22635430759675226,0.3613350120726862,0.49140285181318066,0.6943998145705619,0.8865327435337993,0.860834491618831,0.5770028792701479,0.2699190862640545,0.1341677062170742,0.04244025695478737,-0.034127576510102384,-0.09967464111787233,-0.06263900146874392,-0.037038705507003514,0.11403401575173061,0.16118407591991665,0.13829852478761437,0.9996083710224823,0.2757529833445875,0.3609996138670303,0.47190634106338253,0.6020568343604744,0.7853261047988149,0.8545755303753815,0.6321312542027203,0.34599945577493424,0.12711196480688386,0.022148414984893127,-0.016536086882141768,-0.03338136395447152,-0.031158318416025284,-0.012634681221156316,0.011182883299930387,0.05080941058712172,0.10164974223636877,0.0693634041545779,0.19111668251424105,-0.4758888907343401,-0.11387632779790212,0.1517048530781516,0.36713846588862675,0.6538003727840976,0.9004600527017282,0.8841602714918896,0.6942154765814164,0.5490586914480391,0.44733564406273724,0.3528902115683832,0.2579527784184222,0.1359787629452332,0.08908740760199543,0.038533502761405936,0.0012689335794108306,0.05880689097056947,0.017472896000501812,-0.017868129449735357,0.6126028058205887,-0.11723509722939887,0.014732472378058905,0.1669360270030782,0.32840570849939993,0.5440325460830941,0.7043993668735697,0.6011835568342895,0.44731131008817016,0.41220693292203225,0.39926249091309807,0.4213020178510479,0.40506555331160526,0.3748201024509361,0.32186307143303494,0.24573188573748492,0.20686079621414932,0.26110399537785084,0.0929715547473116,-0.035637337584071345,0.5153873728248629,0.1031546497022853,0.06284170085743954,0.11329834283534303,0.3044234635192446,0.5579081533835474,0.6484615481981972,0.4602240234394956,0.29446409572424104,0.2116015396119324,0.23267672213132792,0.23037487081366437,0.25870170496079614,0.32999444195215577,0.3595178165356801,0.37746353834495316,0.3741857012466532,0.3185160123143908,0.12388046861836711,0.18722788839333124,-0.4827946871738187,-0.21724111150515152,-0.00650364812280721,0.20301924339616523,0.45851935977543223,0.7041638149411771,0.6565495953448757,0.45535402864546276,0.284665807607331,0.23974205251786002,0.23634833705140765,0.243363460409166,0.26629567745553684,0.34087230209665775,0.4149057869885318,0.4362068804256515,0.38555182983797953,0.7139605093064115,-0.17337023391067344,0.038157654679940825,0.14387021106843667,0.26054352483829835,0.4559594886929079,0.5891040594101237,0.4914879359166894,0.267975003253078,0.14247626058599042,0.10538105375090775,0.0921320600946661,0.11189058783618325,0.11520846468624484,0.11033021281540659,0.14991442620533543,0.17077475639365466,0.23106309174957015,0.31887437273164465,0.33576250361391846,0.48044584024577597,-0.2383967730274321,0.13347223623153634,0.3497111449006894,0.5270951569264968,0.6931105490252731,0.8848565047563332,0.783195793363646,0.4389561975980927,0.17265465212512482,0.01633962726566018,-0.016714471602652776,-0.02495676488523068,-0.04593635042705036,-0.041649265532829424,-0.06383224519598668,-0.016779752175014144,0.1050168702253363,0.07950003789886181,0.07198063221176916,0.8109651871303312,0.020789726548735753,0.2344731448627823,0.41308920257484644,0.5955669934606045,0.7759610150287244,0.8897137671050747,0.725283437123309,0.4104150429110823,0.18091035622330326,0.039506666251023476,-0.0060229297233134645,-0.039940008430393296,-0.04577132155911754,-0.03039185784320719,0.012148465350878324,0.13359091463929285,0.06927956531108594,0.060518503855841246,0.014814787013213414,0.08647408844581556,0.2782427454795738,0.422992082104773,0.6525896089154232,0.9532939378606676,1.0,0.805515589983378,0.5818225933498741,0.46489029544545424,0.40524247064083846,0.32821700563940437,0.20997477033146758,0.0994783853645437,0.01775856049106433,0.029802272957407776,0.09848850945100603,0.006290218428819859,0.0008889509474250517,-0.5244433908568631,-0.18235458556353057,0.11415338134268252,0.33397844358550444,0.5847565032927948,0.8509512744262374,0.8587775534604914,0.6458063000554488,0.5220445456821384,0.48155684516287184,0.47719567601672613,0.4526534486273284,0.4029030797667785,0.3297834674533506,0.23055266551430817,0.1436765459400838,0.09342545596338565,0.06423320625636889,-0.0034236245219650113,0.2737040507530184,0.0,0.0,0.0,0.0,0.0,0.0,0.0,0.0,0.0,0.0,0.0,0.0,0.0,0.0,0.0,0.0,0.0,0.0,0.0,0.0,0.0,0.0,0.0,0.0,0.0,0.0,0.0,0.0,0.0,0.0,0.0,0.0,0.0,0.0,0.0,0.0,0.0,0.0,0.0,0.0,0.0,0.0,0.0,0.0,0.0,0.0,0.0,0.0,0.0,0.0,0.0,0.0,0.0,0.0,0.0,0.0,0.0,0.0,0.0,0.0,0.0,0.0,0.0,0.0,0.0,0.0,0.0,0.0,0.0,0.0,0.0,0.0,0.0,0.0,0.0,0.0,0.0,0.0,0.0,0.0,0.0,0.0,0.0,0.0,0.0,0.0,0.0,0.0,0.0,0.0,0.0,0.0,0.0,0.0,0.0,0.0,0.0,0.0,0.0,0.0,0.0,0.0,0.0,0.0,0.0,0.0,0.0,0.0,0.0,0.0,0.0,0.0,0.0,0.0,0.0,0.0,0.0,0.0,0.0,0.0,0.0,0.0,0.0,0.0,0.0,0.0,0.0,0.0,0.0,0.0,0.0,0.0,0.0,0.0,0.0,0.0,0.0,0.0,0.0,0.0,0.0,0.0,0.0,0.0,0.0,0.0,0.0,0.0,0.0,0.0,0.0,0.0,0.0,0.0,0.0,0.0,0.0,0.0,0.0,0.0,0.0,0.0,0.0,0.0,0.0,0.0,0.0,0.0,0.0,0.0,0.0,0.0,0.0,0.0,0.0,0.0,0.0,0.0,0.0,0.0,0.0,0.0,0.0,0.0,0.0,0.0,0.0,0.0,0.0,0.0,0.0,0.0,0.0,0.0,0.0,0.0,0.0,0.0,0.0,0.0,0.0,0.0,0.0,0.0,0.0,0.0,0.0,0.0,0.0,0.0,0.0,0.0,0.0,0.0,0.0,0.0,0.0,0.0,0.0,0.0,0.0,0.0,0.0,0.0,0.0,0.0,0.0,0.0,0.0,0.0,0.0,0.0,0.0,0.0,0.0,0.0,0.0,0.0,0.0,0.0,0.0
-0.3712839677467756,0.18204201379679652,0.5763397638350982,0.7599996494979165,0.6450517839917148,0.48891751665749916,0.39697505136579264,0.34652304069957657,0.341713029577857,0.33670344349574294,0.3228346755218931,0.33937106223095853,0.34914221396133427,0.42776652848348656,0.4137114344833408,0.383830901058941,1.0,0.5654073608770102,0.4756790121288108,0.43953871433185765,0.47763757727550854,0.5540226949333097,0.5335823033877275,0.32582227997419094,0.13317057169812913,-0.011751957913147522,-0.0379019791751998,-0.046932564033982,-0.020679116189401197,-0.01781884476775605,-0.006133563818046584,0.012304992961959266,0.0775671741869133,0.07974910652042225,0.09362545361241979,0.4236829685130384,-0.30712052923818034,0.01365209112167949,0.24448232271267908,0.4667813834004765,0.6776762693914017,0.8172766729055311,0.7079405900090522,0.4959330647485526,0.33949700822347256,0.2258279416299197,0.2140081292137755,0.186702820400948,0.11457756143828336,0.050514204520757174,0.01723393608748308,0.08125179745879574,0.04259973145801685,0.003736507244220944,0.6628858031111793,-0.039104882992845424,0.04119034003841135,0.14811379532797897,0.311822622444995,0.5504918136338177,0.7087709800451044,0.6391568675552807,0.4878937196815825,0.39998312828561783,0.374168452948186,0.3802704163376799,0.36083984111184947,0.29726193254344696,0.2709028653234054,0.2734733531430246,0.26239114274025666,0.12690254056534211,0.07066118046335057,0.3159118998359974,0.20116714654938375,0.28662812604487437,0.3871689073257637,0.5630743887701195,0.7754710632082794,0.7879959726064438,0.5898632501502615,0.40784546437608626,0.3373299121472894,0.31918301914577696,-0.9935251258663311,-0.19276015581678677,0.24549650828327596,0.46466516563021965,0.6160147751227021,0.5223561664417238,0.4527012028587808,0.059636415876350414,0.1538110092327762,0.27584477236925214,0.37413770732630924,0.5615229158450793,0.7248375084462952,0.7360423175806319,0.5241095215905579,0.36794732626780796,0.3097252454401339,0.31972251266384094,0.32731476911643953,0.4217658647592763,0.4671701963621832,0.4123162030704794,0.8674462714902224,0.008509395433053285,0.20990041949530722,0.3565327160881241,0.43726063748276706,0.5727322276007469,0.6766042135549705,0.5216456414272524,0.26361403850692433,0.09420854412251807,0.06217640237693568,0.09355825507265673,0.0924973794040269,0.11972117651374291,0.15208673776698642,0.2143761829462669,0.2462615682384972,0.20683201993321726,0.5947518889803372,-0.15707529331353073,0.15674155084819683,0.41036419134476343,0.6475868048882445,0.8432051395346203,0.9286307499106988,0.796434690650507,0.6106242090468136,0.43604610051574083,0.3701831119630002,0.27791125821839213,0.18853918212061982,0.12476370563854895,0.08407843866223942,0.08132874946128163,0.13012013004178283,0.09490980925421591,0.16282604384087906,-0.4139662629146713,-0.05271283187695445,0.1938836085650238,0.39813811691543544,0.6282332626894432,0.8060938318994145,0.7772083573285254,0.6225579568358766,0.46939288143360536,0.461073195670834,0.4715815411052685,0.44678669446345187,0.4292326325248347,0.4015540643563825,0.37323843007317975,0.35872898550514853,0.3133863904252411,0.16984615332116693,0.09252046367989827,-0.5358628410692016,-0.19947283160913729,0.05561704239072616,0.25630791375999923,0.4939523425501563,0.683072569635741,0.6720840529941218,0.4965566718045964,0.3548388159222739,0.2816682174086346,0.2671604227646424,0.25350394312696345,0.27791090396237733,0.3342112077228008,0.3422791669853323,0.3674169121690486,0.4480699850859102,0.3789224357762989,0.2599753702250881,0.8481396115886288,0.04998933113670489,0.06887481324609324,0.10246560446886258,0.17349536530500448,0.35427547877808485,0.4886434281604013,0.3663120189671978,0.15998347772516214,0.06549470899829929,0.044424657759430795,0.050088902365900405,0.08042321041820007,0.08006649660684326,0.05067224358562752,0.0418191606990775,0.0906911452176007,0.2146405913751623,0.16371012370847565,0.1845499459814577,0.28128924459167953,0.4196331511769948,0.598337547496765,0.7835172125339618,0.7838730379299991,0.5820389716779135,0.3407792956996869,0.2459918913198543,0.1658590809591564,0.05821593176884821,-0.04143075046105211,-0.0715458777230971,-0.05693918512174281,-0.0005165571769398574,-0.01879525738762801,-0.023782281416978433,0.7310813802333328,0.24861484929958122,0.20868601027123307,0.26175909130481456,0.42972088655667917,0.6183611814435681,0.6921524170681257,0.5895181430473878,0.4711542011542967,0.4002496236962727,0.3722341662458815,0.34411245111758265,0.3146155871217651,0.26842579596527655,0.20592350064670115,0.14607962010499215,0.09009850950644387,0.0011738135663593183,0.30316315867024696,-0.5313925280328813,-0.16202521287106747,0.09373619198416304,0.31772384544282595,0.5938351975194601,0.7807982929917084,0.6873468206525324,0.4688450573075095,0.35212913160583237,0.31614165371342307,0.3125554439821676,0.2946943498840697,0.2964452877477579,0.337233381931729,0.3703779614325785,0.4491794426973791,0.31748557441801323,0.2277319185751127,-0.156389089141274,-0.020557951186550214,0.11921038509616981,0.25631928846929125,0.4366418301945669,0.5800384530228322,0.6142173036806073,0.4631652610882781,0.33222261586252266,0.26807699126860446,0.26122568329356455,0.24391022158886122,0.23678534849621707,0.23158394980948194,0.2675502024618768,0.3322831308297933,0.3270316625054133,0.43026802687710947,-0.28513181901566564,0.10652019427870224,0.3467770903908328,0.4976250152312345,0.6574057530494676,0.7699397680158733,0.6298963807601405,0.35172067700591714,0.13826911181362792,0.019285711616821063,-0.03663267814681698,-0.049734205626548726,-0.03819777908172962,-0.03176583682088626,0.04558971265320726,-0.010217048319246571,-0.05002734202898178,0.727685520108452,-0.013436134873979587,0.02374558046790118,0.104660768835944,0.2900569316151273,0.5514402241537113,0.6954677206337386,0.5560617672045095,0.3331938666643434,0.18840960949273644,0.11344746583313238,0.0,0.0,0.0,0.0,0.0,0.0,0.0,0.0,0.0,0.0,0.0,0.0,0.0,0.0,0.0,0.0,0.0,0.0,0.0,0.0,0.0,0.0,0.0,0.0,0.0,0.0,0.0,0.0,0.0,0.0,0.0,0.0,0.0,0.0,0.0,0.0,0.0,0.0,0.0,0.0,0.0,0.0,0.0,0.0,0.0,0.0,0.0,0.0,0.0,0.0,0.0,0.0,0.0,0.0,0.0,0.0,0.0,0.0,0.0,0.0,0.0,0.0,0.0,0.0,0.0,0.0,0.0,0.0,0.0,0.0,0.0,0.0,0.0,0.0,0.0,0.0,0.0,0.0,0.0,0.0,0.0,0.0,0.0,0.0,0.0,0.0,0.0,0.0,0.0,0.0,0.0,0.0,0.0,0.0,0.0,0.0,0.0,0.0,0.0,0.0,0.0,0.0,0.0,0.0,0.0,0.0,0.0,0.0,0.0,0.0,0.0,0.0,0.0,0.0,0.0,0.0,0.0,0.0,0.0,0.0,0.0,0.0,0.0,0.0,0.0,0.0,0.0,0.0,0.0,0.0,0.0,0.0,0.0,0.0,0.0,0.0,0.0,0.0,0.0,0.0,0.0,0.0,0.0,0.0,0.0,0.0,0.0,0.0,0.0,0.0,0.0,0.0,0.0,0.0,0.0,0.0,0.0,0.0,0.0,0.0,0.0,0.0,0.0,0.0,0.0,0.0,0.0,0.0,0.0,0.0,0.0,0.0,0.0,0.0,0.0,0.0,0.0,0.0,0.0,0.0,0.0,0.0,0.0,0.0,0.0,0.0,0.0,0.0,0.0,0.0,0.0,0.0,0.0,0.0,0.0,0.0,0.0,0.0,0.0,0.0,0.0,0.0,0.0,0.0,0.0,0.0,0.0,0.0,0.0,0.0,0.0,0.0,0.0,0.0,0.0,0.0,0.0,0.0,0.0,0.0,0.0,0.0,0.0,0.0,0.0,0.0,0.0,0.0,0.0,0.0,0.0,0.0,0.0,0.0,0.0,0.0,0.0,0.0,0.0,0.0,0.0,0.0,0.0,0.0,0.0,0.0,0.0,0.0,0.0
-0.3711534804814422,0.18214703084725983,0.5764253731199664,0.7600738728975452,0.6451259909256231,0.4889932326200257,0.3970497641606917,0.3465950914955298,0.34178058691163227,0.336766412149118,0.32289327609010016,0.3394240004647619,0.34918959955566264,0.42780556719497753,0.41374548493589175,0.38386037016957764,1.0,0.5654177904459383,0.4756864519294403,0.43954085187865227,0.47763129388858816,0.5540062274260544,0.5335590310149109,0.325799020401795,0.13314639393657454,-0.01177924829782727,-0.037937307370697164,-0.04697698784251528,-0.020734398529234335,-0.01788451459248202,-0.006210382205087982,0.012216348692014482,0.07746450832845424,0.07963443313756939,0.09349794391997074,0.4235301784261096,-0.3072584386706307,0.013488561379696463,0.24429629676913991,0.4665729059468313,0.6774455255119121,0.8170261665967693,0.7076796422972204,0.4956654443474097,0.3392204752533023,0.22554078138696781,0.2137064080382956,0.18638712466899315,0.11424963818172665,0.05017382302065991,0.01688004136754557,0.0808808394323821,0.04221584403630243,0.003339960094998917,0.662450250520363,-0.03952709229614458,0.04075201721922479,0.14765885674435042,0.3113495112798601,0.5499983783620652,0.708261103903385,0.6386401712116095,0.48737434504394933,0.39945978842192764,0.37364002038528815,0.37973703019544297,0.3603039511474209,0.29672681860913674,0.2703688215717807,0.27294111470634325,0.2618631980427168,0.126385737489517,0.07015472130815828,0.315406633853832,0.20067932337364186,0.2861527402465809,0.38670816584333567,0.5626283406674234,0.7750413888950543,0.7875935283443342,0.5894994549656608,0.4075232292510589,0.3370486595031956,0.31894458573299755,-0.9936673049812837,-0.1928826444944498,0.24541188271178266,0.464631286283039,0.6160389361927938,0.5224526175278835,0.4528741077196121,0.05990339394692726,0.15415890672864052,0.27627816504312647,0.37466332503361516,0.5621433604067532,0.7255598820350485,0.7368787876562355,0.5250751398108625,0.36904665964615035,0.31096141278090533,0.32109992458043896,0.3288406839535771,0.4234442753027172,0.4690104216658775,0.41432964540648204,0.8696211452573076,0.010903685894879412,0.21248152754076696,0.359310714170654,0.44024609570870316,0.5759311663958662,0.6800259939258438,0.5253083295440518,0.26752976162870507,0.09838209952646915,0.06661069725136286,0.09825897195864142,0.09747379030139312,0.12498013920482579,0.15763587403496657,0.22022202193727758,0.2524127691527907,0.2132986011914466,0.6015245903290889,-0.14994614903639428,0.16419293371712793,0.4181456286485759,0.6557034255543593,0.8516619817304873,0.9374343772367574,0.805594633065021,0.6201425521632261,0.44592122671967716,0.38040840629380007,0.28848394246894193,0.19945398374065987,0.1360130573323668,0.09565338632266034,0.09321823321248493,0.14231097370102241,0.10739235703829525,0.17558177615378628,-0.4009290844256351,-0.03944823642148059,0.2073587154788406,0.4117997276186225,0.6420503577648119,0.8200338975756627,0.7912402354763973,0.6366427813406339,0.483482240807836,0.47510844725636314,0.4855040284167734,0.46053493149758457,0.44273854190398765,0.4147451965163527,0.38603687011034443,0.37105109787496854,0.32514501132127077,0.1809513968995729,0.10287081134853131,-0.526350742650247,-0.1909456883251124,0.06304611292052165,0.2625175945089754,0.49881061844321484,0.6864434498356815,0.6738300712214065,0.4965317216776475,0.3528819253724406,0.27760979721752527,0.26082398046109906,0.24470793362224233,0.266465132103841,0.3199185290500288,0.32493836936769777,0.3468172331245951,0.4239922241086166,0.3511483668380684,0.22827620161683163,0.8122510364673672,0.009720544098174612,0.02394459004326562,0.05261729426883026,0.1184656050372571,0.29379254891770207,0.4224362535641204,0.29411253831343726,0.08151234758407924,-0.019539218784706946,0.0,0.0,0.0,0.0,0.0,0.0,0.0,0.0,0.0,0.0,0.0,0.0,0.0,0.0,0.0,0.0,0.0,0.0,0.0,0.0,0.0,0.0,0.0,0.0,0.0,0.0,0.0,0.0,0.0,0.0,0.0,0.0,0.0,0.0,0.0,0.0,0.0,0.0,0.0,0.0,0.0,0.0,0.0,0.0,0.0,0.0,0.0,0.0,0.0,0.0,0.0,0.0,0.0,0.0,0.0,0.0,0.0,0.0,0.0,0.0,0.0,0.0,0.0,0.0,0.0,0.0,0.0,0.0,0.0,0.0,0.0,0.0,0.0,0.0,0.0,0.0,0.0,0.0,0.0,0.0,0.0,0.0,0.0,0.0,0.0,0.0,0.0,0.0,0.0,0.0,0.0,0.0,0.0,0.0,0.0,0.0,0.0,0.0,0.0,0.0,0.0,0.0,0.0,0.0,0.0,0.0,0.0,0.0,0.0,0.0,0.0,0.0,0.0,0.0,0.0,0.0,0.0,0.0,0.0,0.0,0.0,0.0,0.0,0.0,0.0,0.0,0.0,0.0,0.0,0.0,0.0,0.0,0.0,0.0,0.0,0.0,0.0,0.0,0.0,0.0,0.0,0.0,0.0,0.0,0.0,0.0,0.0,0.0,0.0,0.0,0.0,0.0,0.0,0.0,0.0,0.0,0.0,0.0,0.0,0.0,0.0,0.0,0.0,0.0,0.0,0.0,0.0,0.0,0.0,0.0,0.0,0.0,0.0,0.0,0.0,0.0,0.0,0.0,0.0,0.0,0.0,0.0,0.0,0.0,0.0,0.0,0.0,0.0,0.0,0.0,0.0,0.0,0.0,0.0,0.0,0.0,0.0,0.0,0.0,0.0,0.0,0.0,0.0,0.0,0.0,0.0,0.0,0.0,0.0,0.0,0.0,0.0,0.0,0.0,0.0,0.0,0.0,0.0,0.0,0.0,0.0,0.0,0.0,0.0,0.0,0.0,0.0,0.0,0.0,0.0,0.0,0.0,0.0,0.0,0.0,0.0,0.0,0.0,0.0,0.0,0.0,0.0,0.0,0.0,0.0,0.0,0.0,0.0,0.0,0.0,0.0,0.0,0.0,0.0,0.0,0.0,0.0,0.0,0.0,0.0,0.0,0.0,0.0,0.0,0.0,0.0,0.0,0.0,0.0,0.0,0.0,0.0,0.0,0.0,0.0,0.0,0.0,0.0,0.0,0.0,0.0,0.0,0.0,0.0,0.0,0.0,0.0,0.0,0.0,0.0,0.0,0.0,0.0,0.0,0.0,0.0,0.0,0.0,0.0,0.0,0.0,0.0,0.0,0.0,0.0,0.0,0.0,0.0,0.0,0.0,0.0,0.0,0.0,0.0,0.0,0.0,0.0,0.0,0.0,0.0,0.0,0.0,0.0,0.0,0.0,0.0,0.0,0.0,0.0,0.0,0.0,0.0,0.0,0.0,0.0,0.0,0.0,0.0,0.0,0.0,0.0,0.0,0.0,0.0,0.0,0.0,0.0,0.0,0.0,0.0,0.0,0.0,0.0,0.0,0.0,0.0,0.0,0.0
