0.1353382565939558,0.22904770962019763,0.18684693142816286,0.21713871927172337,0.38106853893032244,0.6736698082638163,-0.10088697628016628,0.04018197111622485,0.32513587468189203,0.254989256620592,0.25814860202538953,0.21846749409124824,0.1872659982841869,0.15104799914443698,0.10620855340879332,0.055002391546199014,0.014771270783048558,-0.017645509427970437,-0.013772579116959354,0.020698379746583655,0.10251316878978689,0.12994980792772134,0.14383371291762292,0.14827962164370914,0.16233673687560132,0.19276008377903356,0.21331152799487313,0.25695075163766334,0.28701582454510594,0.33050413782090865,0.41666566388103365,0.5721768188674201,-0.003495643503580206,-0.15885355955977593,0.10166601649859638,0.43083672480478985,0.3905616859994056,0.35477081584960246,0.2722822665201347,0.2168357290479749,0.13175026778964227,0.09145233021358286,0.02378021029352095,0.02655527400694761,0.07235393526963997,0.09418063774818713,0.1247277619948251,0.07844821984567829,0.04513631973204795,0.026116756248105343,0.013803080901800607,0.01708630949050519,0.028796972474616052,0.05569489947344949,0.10303826510558964,0.11630547747103302,0.23160918153112506,0.2206210690057983,0.6775031266049633,0.2669297989783708,-0.14256694565620567,0.32258543612287244,0.2529509631122255,0.28694533512117015,0.19999270839751948,0.19973565533757426,0.14271152490725833,0.12234221120588276,0.06834237188084177,0.030766601229256778,-0.01478031172939619,-0.0161332149909661,0.035173923700306836,0.07410689596689536,0.1011978472562234,0.06975561372995073,0.04768012347961812,0.04355088840370635,0.042143340887036744,0.04682040082555937,0.018134911348764195,0.010939347740812465,0.01226693279416677,-0.003702296596398754,-0.006468723234776384,-0.010409847650014653,0.014448225844621939,0.016379887676718472,0.050318164622252665,0.06528949813419355,0.053468762418699654,0.09371375662849235,0.07850285245297996,0.13813552348434394,0.1345085258175007,0.20825752310482323,0.19991603784267753,0.6098576157489922,0.4143469729621153,-0.18619204743873238,0.2823728048322682,0.23879026959229085,0.2490464468583521,0.19659174522494588,0.17512871594225085,0.15035377441809458,0.12384611662038422,0.08466953330853132,0.06332993105315447,-0.0014872510515137125,-0.020647251396733554,-0.0185730557539342,0.04319245382733497,0.09186564446960165,0.09717022863165403,0.11620009222963146,0.10332734015951656,0.11578448908082438,0.10355328273340568,0.09567527377861146,0.07146407162308792,0.08280192432812869,0.07320572379283245,0.14447498055659003,0.0948128382235212,0.5567465989469441,0.3780405962132609,-0.1563045539101365,0.23931233491530846,0.18226890537824605,0.20427793167681363,0.16205136928866615,0.14975890407505396,0.09200682356344186,0.059055139174618944,0.0016436084748538125,0.004412755720830197,-0.02476158409275382,0.0048802474842678245,0.05941138109779355,0.10947030850015287,0.10056178604295088,0.06058690794722261,0.050109161833457164,0.013804475161665945,-0.00317048366815276,0.009967998818575836,0.04825464710030572,0.06521683281544247,0.04266386324169069,0.05151321517015341,0.033314477293582404,0.06833944107385963,0.06616467863650753,0.11478025709109109,0.12375313083566146,0.2129861890288856,0.21634182324170353,0.7671490864028471,0.3128487131660066,-0.20079761371958685,0.29749385263454187,0.23099037228873517,0.2543013292975531,0.20903881924772466,0.19323196625646064,0.16483237311739798,0.12986137945817292,0.08345360722246944,0.04702168389932117,-0.017264066155140378,-0.01903908405605031,0.013569124410016082,0.057590387324693716,0.09320173253923822,0.1049192285425259,0.13116164727361104,0.1383291361684084,0.1731382813552223,0.180595554767015,0.19946571752320483,0.22758461224336257,0.23383258967934809,0.2868343215407388,0.3227752734044765,0.48798929272025016,-0.019982914882478928,-0.14614885443490272,0.2107260038949172,0.37152047031297686,0.3556932628127325,0.313628766724163,0.2467434198325857,0.18925761422892567,0.12392949928730027,0.06677923828138863,0.005334563760666631,-0.013655570839727408,0.026712729963750702,0.09775089309316781,0.1500028651504466,0.10945284602277747,0.10010381907703766,0.09028682482405992,0.10520677019920764,0.12008155643931166,0.12923752804813782,0.15162068858664599,0.18811898519918285,0.23461292106988318,0.6341320614430448,-0.044336473793453735,0.029476392813987017,0.31277282037552684,0.22231388920652462,0.2442585903374822,0.18423932969707693,0.17581561734945111,0.10911725752182529,0.07346049279920186,0.007055691605491618,-0.010800623807105609,0.011378948421449948,0.12994599215098632,0.21402194707805494,0.24346142465456067,0.2756267672593196,0.27901101529862093,0.3299688541395875,0.34019539598141935,0.4601092246200002,0.46011426096455565,-0.10199794143869866,-0.12129951794503137,0.17450465746738478,0.44056678656365733,0.3774733100425543,0.3587036009771295,0.3192066105508408,0.28169572577982005,0.2757165760124436,0.26490278226440656,0.3110441411283179,0.386846802616386,0.5013102775770178,0.5215715892633531,0.7415668257796358,0.16390542362489935,-0.24789462616454036,0.08351310519789122,0.3311496631639804,0.35186805429209705,0.327590443658184,0.30854011395020653,0.2767918322665489,0.2451044821382201,0.23462754857952553,0.23307895508987225,0.27471390089267506,0.3564614884495319,0.3781686172400557,0.37167484418474844,0.5025718512086309,0.6233701804478471,-0.05231234928286573,-0.16694708708939635,0.08419472267032621,0.3385369898800632,0.3147615986836798,0.2642621683407147,0.2258943778566803,0.18517441067486742,0.14472092350877622,0.13288833872230454,0.1333076636804369,0.1751706931489608,0.1901458390755135,0.15051523086097568,0.11165392808170156,0.054002051683713505,0.06446022428281895,0.07586631233247716,0.11728820251249328,0.13066951592815795,0.19139058780307452,0.23919623603867496,0.7601278775177124,-0.016737065919754344,-0.03460414055059727,0.29456223956548505,0.20653271062155826,0.23036372017298387,0.19881048129485496,0.17263083026991255,0.10110326223558784,0.06627304251075411,0.0120111099173097,-0.0024154296632326404,-0.01632554410659825,0.027395684689691863,0.08645453697806187,0.10845983428632089,0.09836706980222534,0.055767621711483244,0.047616881239336495,0.017760091660248025,0.013357411661139355,0.035052164733041895,0.032445399268018815,0.08576360461351593,0.10025510694689753,0.17005011375632562,0.20635279674578644,0.2892413491724077,0.28975252693536735,0.7594059850531748,0.211523720206796,-0.1971737481845289,0.29690722792499535,0.2445733520955052,0.26789931334353967,0.22308433808975478,0.20744038509499393,0.1778159941907616,0.1204975024332816,0.06174008576274503,0.03175517037499084,0.007384376452418365,0.055858984127342706,0.11561278207488748,0.19119911696727473,0.22220966696541317,0.2719037410851062,0.28449395472694883,0.3346204046325527,0.35865121004534195,0.536254815261634,0.29118938669637706,-0.21996666722474026,0.03405414304418354,0.3425478161501718,0.3402958140401574,0.32098565854585653,0.2855602033420115,0.2114571952944303,0.16711488716568393,0.09885304382109779,0.07573994048921062,0.06660556824002109,0.09798322717725716,0.11424216523475184,0.07280618546838144,0.050441120499157666,0.014235508266252464,0.013935062468482265,-0.00672884744394119,0.005859656430928811,0.029973461012086457,0.0348667267118366,0.0597790122962803,0.07703214692878085,0.14425173831091775,0.17808378462000904,0.23553969433489022,0.3272592656191378,0.6982444704037734,-0.059410009446954966,-0.009986608847923375,0.2967759718430081,0.2240432942749701,0.22872389858486614,0.1925098168124049,0.18617580673957526,0.13326608409993237,0.0815549534050516,0.02194914744992443,-0.007010860256244013,-0.017115293135859314,0.016943674359302857,0.06237112797103725,0.09434275402832759,0.09707768407201711,0.11501181848080837,0.12354265676736094,0.09493563680315159,0.09862457197869459,0.08886919432199739,0.13970777723300656,0.13863515617470668,0.21682319014109758,0.2156357352219082,0.5043694924588438,0.5018656074099324,-0.20316205122551317,0.22090587682702664,0.2695886847234244,0.242578906827933,0.21313418952968582,0.17430335603673308,0.1449919486391692,0.08969078232330067,0.05827469301523552,0.024198064180552713,0.011094973460160664,0.04150951144822183,0.08635494075593127,0.14805623128706283,0.14351417117007115,0.1559943016943541,0.16844542564239393,0.16961473374290192,0.20883726835003977,0.34849279870670163,0.7000296646152553,-0.13439486357905633,0.09253198839628757,0.26447519961186794,0.2009893669057826,0.20152277209026936,0.14314005279707365,0.1232779126836857,0.07350179697335332,0.023854626975308636,0.013114785373899788,-0.0045324912219967374,0.0408141625890161,0.07787387649877955,0.08739662409689226,0.07993988119720508,0.04283935869801971,0.06011539240123768,0.04993700008288328,0.07470407588255076,0.09805704355039577,0.13909795411130738,0.14971342011960578,0.23013484756483749,0.24155850522762168,0.8049423727919063,0.05736939759283233,-0.05573188295736339,0.29010691939163374,0.21620416407999224,0.25140955872725035,0.19063951621434658,0.1587780827389141,0.10257178991291946,0.07507996417877884,0.01672368321221845,-0.012861017968429122,-0.013115859240758214,0.05275030706191472,0.1394474620292789,0.1911222652928675,0.17729697766873173,0.16762011867616614,0.15602958328479535,0.20573641174511265,0.18815226208695277,0.27000353169655206,0.1737527457122853,0.6078471934310673,0.2731916468482352,-0.1512132339096087,0.35260656508251337,0.24085725609490846,0.2842448710350149,0.1988965078107883,0.2084342773560317,0.14340733825396623,0.09979542463009393,0.03216387392379984,-0.0031811027831907188,0.06876476559357274,0.13415365498147333,0.2382680982304706,0.20859992682755596,0.2673373708357197,0.20662570305908237,0.6230260441828249,0.34749852135098164,-0.1922428437034101,0.259223280938396,0.18893318569359335,0.25244959404232736,0.18596349779391497,0.15429580599015602,0.10908944646067392,0.05082829688868029,0.00967006092711536,-0.020571387444733375,0.024292766198504057,0.07479926954448526,0.09407192034282584,0.09719973150422298,0.07310676805149237,0.054560094154781184,0.03357454115027181,-0.002197489583378421,0.0029472810592157095,-0.009184421755691754,0.01630564410827625,0.05309085285349159,0.09432028180902992,0.1277384553630936,0.1493294207149079,0.1804139854052486,0.15594161361908387,0.23644556160521518,0.2337846253502966,0.7629921000353784,0.03762818389581254,-0.044984980181866745,0.2922436230623205,0.21775845559828572,0.2870049521074439,0.18791065730466716,0.17099327344139398,0.10821925585677472,0.06080935786758617,0.02424716854630449,-0.01241265900119238,-0.007540633656473621,0.02854455246577111,0.10126709297075832,0.18692344663615923,0.19482496887897513,0.19309746240421827,0.16755861595956512,0.19837384711990616,0.1934259947518203,0.22461679254613262,0.25676815276652754,0.3783471170767462,0.5409601561816999,-0.19703351683319975,0.17034557141370454,0.34268398546925394,0.2848317214070223,0.26924950384174323,0.2106039502967816,0.1697719881964022,0.09959423679240866,0.05479090772040344,0.014727129640710457,-0.001351301165567194,0.05482025069580697,0.10505299306060822,0.14983407467017548,0.13539692995785876,0.11870396346322194,0.11605400963932175,0.1309742438521051,0.15325689656072974,0.21408210544878706,0.203150701512418,0.41128255226191024,0.5285505761177594,-0.19024741767300718,0.18220809443412025,0.27323137275323095,0.2497694367339607,0.2302578809928217,0.18533813524196,0.14880279609313515,0.11439965400185696,0.03238163255893227,-0.00814060606923433,-0.015196274194336876,0.0345801629419263,0.09978163695056749,0.1325799710229614,0.14915978840428806,0.12951453233389726,0.1346092965978255,0.14108895542522323,0.14244834527823982,0.1719667369118685,0.17586007495842823,0.22257989150345303,0.3230823970431575,0.6169537920143019,-0.10154842821609047,0.09757743360803955,0.36098382990161715,0.2647131961723383,0.25801899548570134,0.19165473401299452,0.14572587786310381,0.08895892813458602,0.02768009929317829,0.009342320327834795,-0.008807380856622407,0.019586360467141774,0.11588451545824932,0.16655028083656118,0.1816231536609996,0.14771919857196059,0.17341334736714517,0.16294171576764835,0.21594338989015485,0.2098643682883795,0.45216526857380557,0.4538864582407246,-0.19364720851071762,0.25767487161382474,0.23349876098955683,0.21556945826678672,0.18232934112654817,0.1422951420189774,0.1028193774308963,0.054213194758423136,0.03321589078925791,0.044891498876848686,0.05747154731244075,0.11446281492841803,0.16460524861512743,0.19297727563692524,0.18041693099472078,0.18737537168751073,0.20675987119974074,0.24445379130042713,0.3595874989479442,0.6020235093532842,-0.11867040296437999,0.08631932486935998,0.3081730908466522,0.23371574636599085,0.22631038493204667,0.179510073222888,0.14475713673841759,0.11969182407848401,0.08896727103980832,0.06326034418023861,0.06467589462130552,0.14534817451936236,0.19464040953788256,0.22571166341458476,0.19798755180824604,0.4263507882557721,0.6125115575567174,-0.1545479698676593,0.1339381359991493,0.2204236463656136,0.19151234536034806,0.1820922086304973,0.15096103219129217,0.11028276264717359,0.08555784172566479,0.0631789989607249,0.06341444223405536,0.11019052128925735,0.17929742088267264,0.28405903131779575,0.25546594733409855,0.5228344521310433,0.4630788209409313,-0.16811239742609588,0.231013786020848,0.21903652260589582,0.2218306675754838,0.1749798058459823,0.15604487488503352,0.10366590912466331,0.045428031175023524,0.012575934260529558,-0.013516620963255096,0.021925114944496837,0.07371995533405726,0.10261001507807778,0.09634673477673902,0.0811777363089459,0.07581501000339534,0.06627350141932183,0.08320478037260463,0.07703832737706089,0.12504109656074966,0.13711648511801786,0.22206214094108462,0.2116410373195926,0.555890646175322,0.3307473164773783,-0.19789800607305524,0.24584123654470585,0.22961168768794676,0.21224127205243,0.1478950005750033,0.10816999535770576,0.09084962386053386,0.07045042150566133,0.04567934347075244,0.03320368077248796,0.0209781171923236,0.05419756546674564,0.0936133945751998,0.15633016905080546,0.1690513101449096,0.17027622506602474,0.18844570344077483,0.2142007530346427,0.2468124842735073,0.33469723679463564,0.6096871829839285,-0.0986948859627001,0.09625846940132816,0.2994441620617579,0.21198221358152214,0.2361559874605049,0.18183413253684724,0.16132901730530716,0.11711468089144376,0.08008172606808803,0.04114454363315954,0.0394132775962674,0.09685779941550368,0.19684649434746906,0.20768002391161985,0.4189611022726993,0.5969197202170169,-0.07800362547984013,0.18886129158628875,0.19439074392117042,0.1852099297963067,0.13280207572229807,0.10285338995701736,0.05616472688442378,0.025388933923638123,-0.01627883305492629,-0.01544183635022354,0.006288287333783808,0.05651483053565326,0.09662217717767639,0.08911317312487116,0.08965870739838507,0.05783639335260312,0.0399001863426093,0.042119798129369536,0.023594044679372293,0.03257250080702698,0.04408145276871713,0.08043924385940328,0.08812199694605241,0.14608868995192897,0.16892827316312653,0.23138094218959537,0.22401856477248572,0.6382446921769307,0.20738932317338332,-0.15814639875130837,0.2624355313961029,0.19889763852135206,0.19649433550646733,0.13812467049037885,0.1145661171715751,0.0742617235640236,0.0578527904095698,0.01572494978340064,0.03112520103227441,0.018482207983073044,0.03817889265748183,0.07582923141997974,0.1066126833796775,0.10997579072412715,0.08677922844259463,0.09055222171874579,0.11028408807410738,0.11639573635725244,0.17166373267823484,0.16156408307705097,0.242994238354998,0.19121295521052978,0.5418850181241212,0.4372628601007449,-0.22401486879794782,0.291925966635029,0.3017180443824223,0.3228055581970638,0.2780115149494019,0.24235622508889712,0.1609535522427294,0.08661142571778684,0.04099862660042983,-0.009308713431124644,-0.017143342984740868,0.03795693064896119,0.12279627085684658,0.18482985036579863,0.1756794541434582,0.16999392215449857,0.13300634190028024,0.15389474255121388,0.1478505740911626,0.20654475200271408,0.181231460508082,0.566807374009181,0.05196192848779935,-0.010571741753764857,0.3710209585823453,0.28037417396314795,0.3354211012706611,0.15411174889369347
0.0776042875355273,0.09563778056222792,0.03657649129413892,0.006271466374745833,-0.026555635012758892,-0.006038543806671697,0.01740429113260162,0.08358781704323998,0.11469534103801989,0.10730789962382009,0.07656787445570223,0.052820384777105565,0.06456803377100388,0.32882207118256057,0.2599042414565957,-0.04365702717837109,0.030493181047446045,0.08705618416136314,0.06251494994704629,0.046521103714156076,0.0380906203296963,0.025951516405291038,0.011874959568558847,-0.006429574439827932,-0.0034186457945113704,0.03359255817792105,0.1269690133557828,0.21832946188411367,0.2720336257928875,0.39691160169380174,0.6267185154724354,-0.12034223865354868,0.12476372120062362,0.25307813932112844,0.22069621335774625,0.21939745036908395,0.18448298948480701,0.13018797860556763,0.09590275116424923,0.053890858150773824,0.036983683923770674,0.08158877407740735,0.1434179535902613,0.22535250983210675,0.22611449311213,0.3109185848172359,0.31041031436461536,0.7300618502421854,0.17020035137612138,-0.14723412314856912,0.2973951150054348,0.2188703105657747,0.27966448697021173,0.21423857779486963,0.19136319260041684,0.12554031623264547,0.08643946594763202,0.06269800525993385,0.05724367734434657,0.11223949018911196,0.15934071488948326,0.20179224958241185,0.32061158399615636,0.6161706615879099,-0.03605791806865557,0.07594108511608556,0.19327050458037,0.10857663757814782,0.09481436060991719,0.062339006619325024,0.03963285538754909,-0.0023430339572456612,-0.01002180944462495,0.0005073319851454049,0.01690739121709411,0.08086198041487878,0.1244901096359793,0.1075610529304537,0.09203046033793676,0.06546009737720528,0.07765775543147622,0.08845717998639697,0.14885580023208442,0.18657489950404876,0.24109944867599375,0.24381203374117383,0.6769299937652272,0.25322988197622553,-0.2000776762632988,0.23401663547959084,0.20816719877861187,0.20876319463169332,0.1506777739331975,0.14595031735582903,0.11520696522062046,0.08348364684577007,0.03751138019397339,0.05015381900786029,0.01550397206877055,0.028634157977310837,0.07598779205723387,0.0721067926224532,0.09105716714393186,0.0896024058494598,0.1237282971097116,0.14765190059410457,0.16948903389290265,0.1779851191381531,0.2264484812222329,0.20201790800108252,0.452221793854233,0.42224371883908235,-0.20840505263747994,0.17224703402305513,0.29915228596056476,0.28317592559648497,0.256570394836135,0.21904782505412684,0.15806868347812097,0.09422766248259899,0.0367351946743295,0.027888936073637814,0.03473246279427413,0.0782814190485282,0.17471573457605633,0.2125315655763215,0.23835609747951747,0.27991179641288383,0.2800704920897298,0.4210547621572093,0.5048142617699801,-0.17806791170914157,0.08948218950471233,0.2788151174550991,0.25832293262450673,0.23478327892848255,0.206115582668655,0.15322604883445332,0.10456794301114258,0.06532961762700275,0.037730651361910936,0.07564543508001809,0.15977964379400084,0.2603917958092501,0.25537840186642097,0.310928163177901,0.3091248180400707,0.6926452885129922,0.12154149000585349,-0.11813208407765141,0.2704721917019949,0.15316038330779452,0.17458239753556196,0.12127807681171666,0.13169063843927561,0.09232495050634015,0.053804190375850235,0.01601006789575575,-0.0003314659412741251,0.031596942663476915,0.07308713916891851,0.07569759778861433,0.06858718059181075,0.033639040727561006,0.058720112688096016,0.10261708900591478,0.14111206353845362,0.15258623206641142,0.1611860936982492,0.1920197721677654,0.2214184547583824,0.31377546972261905,0.5911977154717308,-0.05525996039054267,-0.018185309163401133,0.29355108593309087,0.27457492681383544,0.263676984481924,0.19481362669399102,0.14659831736714396,0.07747602359636956,0.04565859214017077,-0.0019546201356702526,-0.0038031615366348618,-0.010404042486032213,0.047877235858910835,0.13124187427476555,0.1432424132716106,0.12532592068562393,0.08080272324339408,0.08783644932214353,0.07584610172762633,0.08698843284822126,0.10317843353290089,0.14448941043572375,0.15602325272722764,0.23650027244812719,0.2800790841319634,0.6434713280327554,0.21394559897828486,-0.15893331716806872,0.3231752119361129,0.2554716302651956,0.2713605731949656,0.19466547989590074,0.17697707078897107,0.11140285138562164,0.07006573151673734,0.026134449548778648,0.020143829786614463,-0.0016867259334584763,0.00030161644331978544,0.05218578753767037,0.08508526214973382,0.11028377629375229,0.10009749287273745,0.10485535930781544,0.1425096144614545,0.15696838965389664,0.22947996241696833,0.2148775044867366,0.28364819874882125,0.2616581569926459,0.6016699069328355,0.15085785681168945,-0.11964034748688968,0.33481487212525257,0.2558101712106506,0.3091135361930074,0.2535222488943139,0.2306020170742191,0.159729913666192,0.08948402853588182,0.03235675331233215,-0.007844261210008849,-0.016678443939827804,0.02075476170316209,0.07531143856667855,0.13271589516899623,0.1395555450639474,0.14065060963289927,0.10546354657765523,0.09041070659505161,0.09437875321434615,0.10571629934351857,0.13631468338681046,0.17582276438157823,0.2056452840565172,0.3724256389110647,0.5387026206116934,-0.13150565802777012,0.1416336398531068,0.2640677471203733,0.19932677021961584,0.20145693034383425,0.1525466018135339,0.09367745595476568,0.05591262265349317,0.026434947631951682,0.012593150458897997,0.00248620424651805,0.01854047209476723,0.08311523802182913,0.12835927780693077,0.15547816793596822,0.15378569295907665,0.20951384215500718,0.21507384461681386,0.2921641614333374,0.27893647098735946,0.5860960140689355,0.08972613413077676,-0.10591100408601925,0.2899240569651423,0.18527791277979686,0.22121240422506505,0.1896194712840094,0.18629081433331948,0.14017897996405781,0.08377245220563304,0.011211764124678173,-0.0021649572856887993,0.018845166831522493,0.10686572957248494,0.11039809727846925,0.15244553643460393,0.133615049247892,0.5871695379231171,0.23181249515607955,-0.08596267088387376,0.15432175861153916,0.07298373432298431,0.09903795811135348,0.05294172228765011,0.03798204855518022,0.0042416910367852265,-0.02094186830947886,-0.013840863235343996,0.0031739594199480144,0.04267785270538876,0.0950879728156364,0.09034481727427848,0.08392053121299269,0.05880137168707696,0.05533875337497863,0.06784469475784123,0.08699867704534425,0.14329854523219412,0.14562445124702503,0.18731440263953858,0.19383643290496258,0.23642124829133604,0.3006307523010947,0.6795211964902943,-0.044949046548446336,-0.03669306656037052,0.3188201795302157,0.2512231588510586,0.26106953280711226,0.19120498544568543,0.144189382646109,0.08061387975285844,0.0332299892968393,-0.00182682656961177,-0.000284549117843824,0.0017536160378019304,0.07379647247179756,0.12528196082577545,0.12532835787932287,0.09780698796260702,0.0710250707478058,0.07429900281419319,0.06665645781047592,0.09644059134202472,0.10838054929537658,0.17069932777512187,0.19815722595595897,0.36124419148320025,0.6772603788276289,-0.1304355546018172,0.04409387413025288,0.24526902848291798,0.19143332546577854,0.2086696665361894,0.15507614432390032,0.1392283223278714,0.09687461111251115,0.07977531520884364,0.04850583532011806,0.015578707825958696,0.047793367626911075,0.12114325334846744,0.14507232968126121,0.23789502787470232,0.18618060859652544,0.5237020852614807,0.3907492730444203,-0.1470277050330235,0.2562829659228624,0.1810999933032783,0.20486909036806786,0.12318987397188383,0.11020640437241451,0.0646755838449545,0.017834691156893154,-0.01608854702187775,-0.007210889707360413,0.03300841868364854,0.07514590924981743,0.09396625043605794,0.08346820568343621,0.055194452856715905,0.053087998851811126,0.03833368638749878,0.05765492413528372,0.11488723992849012,0.15556800838306692,0.19614758328210652,0.18278563447858343,0.25122221748603746,0.2593018489494025,0.5942148452846862,0.12212129494100883,-0.1255716108558232,0.28111388697687106,0.21433128231247556,0.27822139993311695,0.19720100210080357,0.16194886143262477,0.0970573807182543,0.05273788223399725,0.01470369761385083,-0.003726437437727907,0.00027559630785501304,0.022271496109322282,0.08514356668509399,0.17059251351678917,0.198231462417778,0.20377999261735524,0.17386091999972692,0.20197481163428715,0.20187542522924742,0.49992079238140896,0.26137480216267484,-0.10133659200672912,0.3175536628173355,0.3019437071142267,0.3586357360715287,0.3427507668443985,0.31788557229849446,0.27797567922830835,0.06780386460345758,0.1327798158375718,0.039784091487813,0.08078825271620484,0.24081790785223975,0.5020049006246691,0.5892201801352781,-0.021384860046376852,0.2625374448778034,0.1770147372439713,0.16920148207428873,0.12500222083191323,0.09889238383279639,0.03682476644713586,0.029865668447267665,0.022005783443729613,0.00930187894124045,0.06424092404743814,0.07125012335119525,0.04972961454238611,0.045017414175889336,-0.0019133957645028202,-0.006385288631843606,-0.010952640531490846,0.008450851749322615,0.03456071406928807,0.04705632476003281,0.0621525104994758,0.022605693510028488,0.04586186715955813,0.035494961937942764,0.020331417141317355,0.04749512410170401,0.07381600884778801,0.12167323349904094,0.17027206261087158,0.24159875633931768,0.33245943232893727,0.6806690924370637,-0.006144852722780078,-0.0025427709610396474,0.27866722532673877,0.21787058355641764,0.21736121446140788,0.2055864686144834,0.09927277378209184,0.06474129697114903,0.1442696586571602,0.10873591867724747,0.11666064579018029,0.10208099985056152,0.14974790667035762,0.18862046124806822,0.2045085640019632,0.1831431261488036,0.19571741545601473,0.21322580072788824,0.22592167465098836,0.23195190193565043,0.21684123355841498,0.30732983415186493,0.29424617559350796,-0.1791483290694507,0.06584347067825401,0.2596723934817709,0.25455774380902574,0.2722666415054798,0.2319497982080932,0.16468892860488402,0.08774160376705337,0.027012494808930875,-0.00328104034607448,-0.001197324853742368,0.0396487771852916,0.1088169483736848,0.11999251808941289,0.13779557177301496,0.14368435233945517,0.11369915768736724,0.14560918255808636,0.12036534257633981,0.19153668705248053,0.14839793832780468,0.5080864002563364,0.12148145114334961,-0.061062084508320395,0.37954806079379305,0.3161926137681855,0.3426367697755038,0.30934492608728853,0.26710274081639546,0.26515979406470214,0.02691859166894675,0.06437259110613347,0.1405158640627173,0.24688706525905416,0.36195923504909544,0.3862061505325213,0.38931224924248425,0.35035380423966245,0.3589029327939073,0.2897494173191394,0.5106493200451019,0.43308446329654565,-0.19986182489218082,0.18814018655350928,0.2591770555675678,0.30469956100532625,0.2631891350985566,0.19953916449789894,0.14830817032094726,0.08045600803610646,0.026307384301037684,0.005455011996921132,0.05372645407157269,0.12354300207422003,0.2231006577208207,0.24614717159061542,0.3264836336166867,0.28209655724107036,0.635693548391784,0.3573026816990225,-0.1859063009834493,0.2582121762717974,0.18875371091671872,0.21726049577466316,0.1770080846782591,0.166819912025584,0.13981424451746313,0.09396377500432583,0.035013640775513305,0.0414005811916289,0.08244842413918972,0.1514262841066299,0.1786532078040025,0.19112354759490754,0.2195016519761598,0.2458209368262838,0.3580975952236058,0.6956975906045296,-0.08591473570533781,0.0331481347268832,0.23884813833517954,0.17088413071069655,0.18032460324651348,0.15471756767984512,0.14738368489192571,0.10521026283134172,0.09656099658850675,0.06121839117142714,0.08670676549789519,0.12660113477660712,0.19330800081019336,0.18402287954812296,0.2143704961088564,0.24332390457762573,0.7966753281903477,0.09988334122519966,-0.027039008431655145,0.28228621327759096,0.17374215730363862,0.1880132567010769,0.10172716816599893,0.09498817115419957,0.007192242403987084,-0.016618095577354917,-0.0073635558004862016,0.050446495211713245,0.08138758009293548,0.1176514719734125,0.12428118523811812,0.11769200714698103,0.11073819770035147,0.08703573786960715,0.08072608346747134,0.11580436000290145,0.11966864353429675,0.24358112408585292,0.25474431073740916,0.34235615646929185,0.3156849055408449,0.8361634211619356,0.16034376532004566,-0.14904001346359713,0.3830883538602511,0.25624968929657865,0.28348777266217584,0.21800158334865197,0.1999885386191678,0.13878227961062464,0.07935742135635777,0.05029730199286707,0.037372630778130106,0.036521511575435504,0.07739415166854373,0.10067759548598887,0.11969346217726218,0.11652516218762007,0.12798436602497762,0.10552311199820547,0.08927312855150492,0.10430179216052064,0.11491561324231683,0.15601008798969085,0.20244684480170747,0.288988686311456,0.6664934141551205,-0.10885221589310107,0.09278282231200927,0.34853429132803704,0.2469427883188977,0.22922946567875016,0.1569387137943074,0.10883915781097621,0.029843337677563572,0.020138091978986583,-0.0026274296723219413,0.018471848842674086,0.033676829896470126,0.07535627387180815,0.0865488964908862,0.06404369278091178,0.03722863824839338,0.003589990255519351,0.0004924312340484979,0.025946130866548747,0.05049958777408787,0.060136412581508536,0.07927647975087186,0.10262143271964719,0.1037009875028369,0.11504584089112811,0.16391855951181855,0.18158243159592607,0.3604558490123933,0.6536264618308072,-0.14371166647832148,0.12364751377850582,0.24209862649269726,0.2063681356260637,0.15862096618842314,0.11508699035343252,0.06211476742325878,0.027295489924641713,0.03536955338594888,0.04496244435710518,0.028331610959055387,0.03943981163385902,0.09156118371660081,0.11152185842887057,0.10582325128108643,0.12304484608357125,0.10198135860641996,0.16556425771678673,0.17099029797279092,0.2676715996021351,0.2195369994784368,0.5826305051364931,0.26845749352492393,-0.16407014975021358,0.29616419887474177,0.19817501561792014,0.23169651095900567,0.18489709314175298,0.18030279110628028,0.11809357250688139,0.06888887658105801,0.013286356343007765,-0.01609979007719402,8.213036936268229e-05,0.08125506255020387,0.12077984153514504,0.1516977041180671,0.14838533175669896,0.13229817373460878,0.13717378481921647,0.16354431930377683,0.1845748317773864,0.21890510082634557,0.20040750438022314,0.36347372498883357,0.47380724849817796,-0.1791886066544635,0.18860527643338298,0.25310300310597544,0.21999344330870552,0.1999041077064625,0.1648493105897116,0.0998248849119023,0.05980714370305877,0.0036993275946432757,0.005839397142722272,0.026748611788112123,0.0641361484425113,0.13455253474793127,0.16603868839813815,0.15628270379418288,0.15639679997999648,0.11783963729531027,0.19428591638729042,0.1483890554298032,0.7188184048826363,0.35245431843731206,-0.15865412900154707,0.2495281159695442,0.1604416992214361,0.20411441266565392,0.13689766587648716,0.1462631777173258,0.09737528006516087,0.06747151077903166,0.02827295854242723,-0.006686492853871978,0.045997448055157396,0.11316557594173558,0.1938742087774434,0.2350492676876545,0.5460287964798477,0.00802000014948985,0.012768010632220148,0.14920977034736543,0.08025296812641394,0.08858273860308902,0.06807136397988621,0.057535427095672574,0.018276185838004298,0.024854428971251404,0.030682235310343094,0.08739366839175056,0.16327119210041022,0.20239048077482527,0.19973166315769847,0.23662499842671095,0.2197779179220457,0.4275202478723294,0.6122758310746418,-0.18330447712593304,0.13124796248831275,0.26917285136439423,0.24177411559702486,0.2204743372627665,0.15924941148592392,0.1314288547685692,0.07726484497530463,0.08299535786633229,0.09949358759936232,0.14552586965620606,0.22325453935024842,0.2615939432326756,0.2631224457227049,0.250155615690823,0.2379701298776459,0.4416008346454949,0.6455906227869188,-0.1857027342374211,0.1225769353704042,0.3444511539905602,0.2792677107088021,0.2518471709326239,0.1758495405985568,0.1000907600776661,0.04138093573774942,-0.003937468758092924,0.012020787677738416,0.055338917934102956,0.10407148951365909,0.1134228856906975,0.08799349200530858,0.08995381291371585,0.0461485804522196,0.048548817903674796,0.026472900221423675,0.04750669320259322,0.1121907192695897,0.15998097848368123,0.19838981568332734,0.26983838992023945,0.2854329015885828,0.5199307366790072,0.5377985234109938,-0.20319158115704009,0.12834479440824714,0.30481210741590564,0.29971174916973187,0.29687516028254013,0.2515028707396224,0.18143408306691847,0.12306747590044674,0.0650122922886981,-0.0004477512257161899
-0.00761431272901342,-0.016359098771536077,0.02584307977731753,0.11989913822679057,0.16103189469936663,0.22714058731691208,0.2577076327456893,0.2727427308404866,0.2976035144753909,0.2984681281176149,0.3898339042859757,0.4889969900766764,-0.16609127013323668,0.14211004539779334,0.34504165546891347,0.3081327519384815,0.2953718902992593,0.25965911858440277,0.18755941503402232,0.11798009697097207,0.06983958907116596,0.049884174686789,0.06595933581246902,0.1856813437299379,0.17509290635012661,0.49323428028622446,0.46868257397879515,-0.10154615717382977,0.18043899534015173,0.10035452619514333,0.12035901355057578,0.06710202018758973,0.08053156780043615,0.0320133050770401,0.03274621406302705,-0.006716611290063422,-0.0029568106953482567,0.022591383590194778,0.04288769049000433,0.033231673331732194,0.008431677955278022,0.027330668964692644,0.01588094427093506,0.03481705863500622,0.03525030157039152,0.04331277209267558,0.07942956302774395,0.08591828584935599,0.07086854720806147,0.11534684720641733,0.12226163661768265,0.244430465226109,0.20256232387798925,0.6940999183157862,0.38893211782341036,-0.21661648806998,0.2806912319922212,0.2133454268318999,0.2230989798308904,0.15351315862924003,0.13468709211039578,0.09039481187862965,0.06884551869961923,0.024739503510312108,0.0017269531332838785,0.012048692839678141,0.03363419993043805,0.06646566883299324,0.062248392050564254,0.05230843571442575,0.03532697929581343,0.02427535590568935,0.009720718214752642,-0.0028232188824521645,0.0021098303792134827,0.005185202014526065,0.04111002496206669,0.07181329621045272,0.08498460924603746,0.13002280571868996,0.14925220775515471,0.2229759583823848,0.20903872066308316,0.41967201031882545,0.5564830961093855,-0.17787701981922882,0.1407545967873699,0.2727340278655549,0.25152532582596077,0.24706226422782115,0.21203833792301888,0.1616463562120254,0.0823012898958813,0.03460784245952446,-0.0150186316697129,-0.00853952522312212,0.004578405161437963,0.05682260285350541,0.1324970734773292,0.14479181380064404,0.14787046971921725,0.10811121608533511,0.09858369764005896,0.09515746401986021,0.08629756671738877,0.10773999259419913,0.14947928682562714,0.18765953966017515,0.39032425750410654,0.572512207967539,-0.1484409250051125,0.10664132080111549,0.2486222700070608,0.18733428455122408,0.1714745685090334,0.13131976958730657,0.08837729281649291,0.056373876005717236,0.04129380377039947,0.02127915466246505,-0.010399111547909764,0.04103427621484702,0.11052327659088362,0.11485379207067108,0.1400246591545792,0.15489736415901179,0.18366186396984918,0.2041682219743375,0.2827595900863229,0.31304329351202936,0.47245491130713496,0.5182228758861236,-0.19900026262385387,0.15297396799054971,0.295339407002666,0.25777839607485964,0.23556731909679804,0.17956600065677183,0.16707264088098975,0.12775683969968082,0.08580405737172674,0.03425915967754576,0.035139668894058104,0.10218592926730544,0.13196090106817548,0.15124390631381474,0.18884501660076336,0.19777854257237104,0.2826055887633405,0.2793876872489973,0.5913651854332542,0.07302510437236905,-0.11502894892448043,0.254331439104022,0.17656444287241677,0.21558602308781316,0.16171306794952503,0.1495303180773685,0.09052010937831755,0.054048524097297275,0.013715760495107004,-0.008262833478469128,0.04939221666440364,0.08359453948298035,0.09665713409848696,0.12295817265473825,0.14427658404931695,0.16890699255021055,0.150674181207478,0.1947172838264474,0.18282074510857904,0.22863170963242113,0.23940317218701523,0.5815878987245596,0.013662969782436838,-0.07483377731655762,0.364656390178234,0.301204273426229,0.29173805067692843,0.2317147480776021,0.1821752092576917,0.11382236524009795,0.05315201594804744,0.006437004385040263,0.005547712499218278,0.05414453465732758,0.17971549026911315,0.2727601515628644,0.3507852402827142,0.33476681271465647,0.378373853779062,0.3847558263083558,0.587947818805421,0.24995361966100546,-0.22224688728360165,0.09968855547913087,0.3328755886135663,0.3114783243959562,0.2752842450296115,0.23537680545045617,0.22979528371647898,0.14182651825765577,0.096413121260522,0.07145801579043015,0.09832748534497825,0.11799820284165778,0.08808128143506874,0.05953741886187864,0.011609279245913713,-0.008376664918240113,0.03416287925228602,0.11423540869394028,0.13321838924517143,0.1604225471059171,0.183601754454729,0.22401170431084289,0.21750959276777607,0.4284644958289974,0.5938307389433848,-0.17842579182163362,0.15615145542287848,0.3145417764285982,0.30172447432267585,0.25726419060402894,0.22833839484181417,0.15586835445105093,0.10515856314921108,0.04054233503416129,-0.005124401926027882,-0.021713366938270202,-0.002261807462201986,0.0998307352092302,0.15856987575985487,0.13923520107290482,0.09144293415732173,0.06444769532120295,0.04968519148227961,0.026455480899844924,0.02428792803861587,0.007192519610223458,0.017391736897746823,0.045123729056371326,0.09411412996018743,0.1797441719017892,0.1451481804054409,0.2556520430579814,0.1809962778077119,0.7242602609726556,0.21788042320902876,-0.1595045705357657,0.28381276720002824,0.1517335938924615,0.23127134744744457,0.17966709413869145,0.1671252495636111,0.09893769534079802,0.055747532172912326,0.01819015444197079,-0.009858812902211115,0.01813790179954133,0.05865226126739168,0.14732417128730627,0.20135806648050858,0.25995927460766366,0.26886774563047355,0.31663024891355995,0.2945990659502969,0.8625081091335367,0.2932155278424554,-0.11891142763841657,0.34150085568250943,0.21706217309287146,0.29806595404822617,0.23320515831851246,0.23859853762462171,0.16326974375298767,0.1109111918425313,0.04879370602668479,0.050663301240887804,0.11736011639846797,0.15151069638578446,0.20749553773090185,0.2507752262955165,0.3681995686481605,0.6818479313087965,-0.08352729622196482,0.0777952767034812,0.2188037136173307,0.16507536593881553,0.1304827959646606,0.09576617968251365,0.03176416860675138,0.017179705004059034,0.023878576774244847,0.01033143189645215,0.044294401531251665,0.07842775177864869,0.1082386762097564,0.11313683011699965,0.12384204854217955,0.13584991851134445,0.06815964192475395,0.060941053785364636,0.10222352707346768,0.2078576542894715,0.24294946082164767,0.3937152409602128,0.5822808007760023,-0.1408926704951866,0.06917202328837437,0.28579564412278874,0.24045043861976262,0.23295560277456345,0.16552002334558363,0.08732945268291999,0.012539279875761523,0.04348335043519842,0.02213265022337966,0.03169489925021083,0.08026480084348572,0.12518515893323826,0.15733883717362443,0.16077618222527984,0.1742816449116757,0.20390951408044836,0.19986974090432175,0.2669892889121713,0.24028950814382555,0.5309614838813537,0.0661687029609294,-0.09779622728573885,0.33179061921042613,0.25754325688493607,0.2807214997409297,0.200253373928598,0.190642678952428,0.10921004935788131,0.06031260597817571,0.00864957705024339,-0.014849687951204631,0.03213903823006489,0.07559584893647918,0.1051550746982857,0.08819199863555634,0.054099509903841596,0.045374803607570235,0.02381566230881759,0.021623148839791634,0.005048819144003538,0.0008805033003219278,0.000595017779336095,-0.003145984516630635,0.009132739535267713,-0.002593833156026851,0.005296310486429144,0.006396316577930169,-0.002876262174945932,0.006671180143695104,7.476906147281833e-05,0.008185113659453756,0.001024244578242551,-0.002563398484079129,0.0037503690422508455,-0.0018387270878023989,0.019054189367264336,0.015433525816845633,0.036799042911043904,0.041871934150669206,0.09336594927702838,0.1745632064447526,0.21128028729628237,0.1625964688346976,0.18627237559178697,0.17195052420127685,0.5853065933826632,0.34682891791668014,-0.18744362059377717,0.21849479451848305,0.22719752994410736,0.22772430448656586,0.18990069636813253,0.1753833204731196,0.12217408846317808,0.09191699599819554,0.04344097087619829,0.016001228588489638,-0.008627216231710394,-0.01574788546562034,0.017216035190441768,0.050083292755687216,0.09552491086312026,0.09456265991198641,0.10009333752940022,0.08163555301111954,0.062345313298665925,0.0533651529770543,0.02718728054988095,0.022019672740645955,0.003673671955412396,-0.0005369354591607649,0.005447843438218175,-0.0009114709785520013,0.005181268485940854,-0.00663046199339451,0.005713476265663068,-0.0017282835122897897,0.00574401494527263,0.011107414788501857,-6.873362471419039e-05,0.012138012433377521,-0.005661353335984283,0.004041901409994837,0.0046077764369738435,0.0017058555807854918,0.008715300868464601,0.012229504058313525,0.030279569702716974,0.029934800383763848,0.09285111308044514,0.12633760126636526,0.19084743209246968,0.14944612018820227,0.19021396902869497,0.1609880578383181,0.5542842037368073,0.4908756759048935,-0.2144477052509549,0.25046188823018617,0.3077543370959317,0.3141926354726668,0.31532675200518145,0.30303495130735936,0.2854272345780676,0.24924709065106965,0.21307847562044452,0.12093750241093736,-0.059495724586119826,0.10632464368033111,0.13835961518439538,0.17915903422562646,0.2090292475256979,0.22773841095342878,0.2548711739805386,0.24639846624270165,0.22428653207582502,0.2286323239160565,0.21868452915918193,0.2454258088122892,0.22627637611559534,0.3687565484059306,0.5136838762857651,-0.16794247382605326,0.04103208193735472,0.2603176411573908,0.2469595461088734,0.2128963732262146,0.18153150468969748,0.1564540070211946,0.10454193262486096,0.061913537919766226,0.01055207528384886,0.00840882580162052,0.02277310775810039,0.055674133560191984,0.03721364250702033,0.023251058895217638,0.017374427805404605,-0.0014095129255404396,0.0196590798220305,0.0036591087433815485,-0.0015679851903334558,-0.0033089986444084655,0.0006896630130502679,0.02611902977668268,0.031017169945023945,0.04620503310483751,0.12194482122671439,0.18980854802312808,0.19908916878693272,0.15601160683418264,0.1978810848672601,0.2919319065323926,0.6180285908875973,-0.002236506531669791,-0.04383595739080449,0.3373938581443484,0.28432488271530865,0.3157628243406233,0.27027375857662284,0.2614972151576438,0.23789357167329198,0.16825845525545724,0.14410256529915008,-0.019794546575073155,0.01589456933279608,0.121028886795422,0.14362566464333842,0.1703212670220039,0.12879404314089862,0.12794065377051114,0.11056072176900308,0.09778965701844963,0.09020280916590172,0.06105317699784199,0.05841956837230438,0.05150562227077911,0.0780960518354238,0.09873740875512801,0.17784034919120822,0.16162027121615272,0.20260221269252923,0.18597013892424782,0.4915818470041423,0.5392464402880709,-0.22242637708435983,0.2178457867431189,0.27952470293912557,0.2690541052397387,0.2501896050344702,0.2095398182106838,0.17026877114530273,0.1227293967182233,0.050324120409008265,0.006587329529655536,-0.026952574523814776,0.01949561916773431,0.0730313467159669,0.10060118379805406,0.09905116681011072,0.06606833730643305,0.06098781599831506,0.04965973943903687,0.041840444522828084,0.02361321630048919,0.0041915227176018656,0.006942431591394574,0.0038123347351203428,0.010180990889829626,-0.005307878187381765,0.002395577559540936,0.004251881612238997,0.0076250647940089445,-0.0008366243659922075,-0.0020554447873636465,0.014913937568253034,0.0007828960953021702,0.0038653766852926887,0.008805228339154593,-0.0031827914044295657,0.004810615766595916,-0.0027079300035651485,0.008137839840690914,0.012964592190959351,0.019089766148511114,0.03691062510384993,0.06548774699981773,0.1294665697119696,0.16223705928549456,0.1505740150072066,0.17054765619974077,0.1590232450260735,0.38778554831997064,0.693677169135192,-0.12185131212882115,0.07914841850792297,0.3083312990916514,0.2788220100355736,0.27921217785558006,0.2755679629151435,0.25060913283292696,0.24445039105862795,0.1889200775914665,0.16398532052349055,-0.029992017498777668,0.02827185127439329,0.13091191869143656,0.14932069024250164,0.22532185452436265,0.26794872398791975,0.2586860503510895,0.22716719072153893,0.20902666600171016,0.2200139806277023,0.22725111581337656,0.23951880282211604,0.2816875834878625,0.29730923221089917,0.36728376107869487,0.5631581206146624,-0.12080302365472607,-0.037764853019666395,0.3276948192845799,0.31833723798359576,0.28658398355937464,0.24821733703358026,0.20631936536888554,0.15223854501224446,0.09728126530093881,0.03882145578355615,0.022206451141287584,0.026795963262734153,0.06790117834069813,0.053170282017050964,0.01059252654691155,0.0015100667060690932,0.023882234469327555,0.02171733636381185,0.007170777556098556,0.0031742015984883663,-0.0003479879083407861,-0.010936423500035012,0.01253679216129372,0.018856238919618795,0.03878506352676237,0.07411235145654535,0.14611334521424382,0.2383474719700069,0.17704354021437985,0.21724552550316537,0.17417708691940417,0.47075018819512177,0.4996814866098806,-0.20714933400663077,0.19811715657583648,0.25931068466405766,0.27109318765437845,0.23427750378284457,0.2034761657110884,0.17833629358136274,0.1187448991409212,0.07412580825318826,0.0031141834669762922,-0.02353294932164273,0.0030130478198921915,0.04237055725552098,0.10524559055994004,0.0846908890350076,0.08717212466585664,0.06946525327907246,0.06580876878414273,0.05782930068875947,0.031175387476061685,0.024350133970288967,0.012346718164241504,0.008015688348630137,-0.00033376972186878473,0.0039652591994726325,0.013824241214489,-0.004302598296499613,0.0014004909863334777,0.002928637458570994,0.009098971820223392,0.003504416286226184,-0.00029070234039547173,0.01427339749143425,-0.003845661176783039,0.008389751596820713,0.008467173946986211,0.017628790505184903,0.028607400696871513,0.034312292066000755,0.07162623011359304,0.11535198303207503,0.15051246748067662,0.2074520194857477,0.15194733580836034,0.24537966163139877,0.1978257256545374,0.7190358162155644,0.28941953111172686,-0.19113316812199121,0.33992933065042846,0.23933786135298366,0.30341285347722424,0.23031538481978034,0.23656672716713906,0.1779259874012567,0.1292054519441158,0.07254462913658836,0.010056411210460114,-0.01632734019476722,-0.025722144097466697,0.011885280208444617,0.09273870808273299,0.14785885120928555,0.1998877726353012,0.18888660088817877,0.19456450180957657,0.19884542950144957,0.21304069727357092,0.2306442368610793,0.24491028042437094,0.29205159047286106,0.33606397121139764,0.5774173759645551,-0.13527859980732826,-0.0123136480643744,0.3429097362154817,0.30128185613879094,0.30196175181452584,0.25006374030120027,0.20954464481008286,0.14808211033281762,0.08456738260883116,0.03221162821125884,-0.007669427078553582,0.01870403289737619,0.05754661837748813,0.060184022440708515,0.06209646707435487,0.03434289361654196,0.02855723096750697,0.037611977575754796,0.027802156368979807,0.02351085479496638,0.0129211146382848,0.058264830385164466,0.07814666510786267,0.13607394553323976,0.1785004104429058,0.2751175443477124,0.22086069415181145,0.5618389964621265,0.6060320189849562,-0.2367664513488555,0.2517961362818048,0.29459173666898375,0.26958604774242867,0.24112600483732335,0.24031024362809927,0.20747474419966366,0.1325628091437246,0.05084191236174119,0.020089922104770463,-0.02048758425208624,-0.001522952710016782,0.05241442204360348,0.07060449092734193,0.0807116021382027,0.07262439669152707,0.09309314375799466,0.06150754440093866,0.014981489140980417,0.008148248892295377,0.005310871230892772,0.017122374712005627,0.014975407070746667,0.01877119242510807,0.04059755558780635,0.08875344665993988,0.1365937921589121,0.1883660322269558,0.1740346065316973,0.37434177615511177,0.6276240706265688,-0.16025665834661754,0.12639995216412467,0.21659009239568078,0.17843014947522806,0.18816769742767978,0.19594771845248832,0.1752665989902063,0.11363278447142544,0.03548249014784274,-0.0015301169663640155,-0.027210193068602128,0.005859607865639548,0.05790437445619752,0.1064586194163401,0.14486972155974598,0.15299498391338193,0.20420599375697418,0.1744342904359905,0.17010862426749845,0.14765015282578528,0.22363965377346734,0.2182155950261456,0.567623596940646,0.06917076169015497,-0.06050776219167461,0.2571936897434962,0.20703729192455253,0.25950288095897,0.1824267105161483,0.14540063535494455,0.08999567830324635,0.07087802117347987,0.0006255913958749747,-0.01722761281399055,0.0010582773956876984,0.06925830228704885,0.11125060274389875,0.12868517335309632,0.10926786981610671,0.05045308897990487,0.04446804861562088,0.04141784032675109,0.03398607115933371,0.01584926311670866,-0.008223220256141636,-0.002534895457674296
-0.009053338874928126,0.02025779320811055,0.08572117948491696,0.11999940633447509,0.11716302381571281,0.16276723681899227,0.16822853141731792,0.24666685107197342,0.24054854045855378,0.7001332859673386,0.0550016038998739,-0.03938622734072198,0.32819601412822647,0.25267418281911264,0.27972249213165884,0.21122465535410906,0.17604896164286024,0.1209296180854208,0.061573161644935655,0.019726456932088608,-0.019251426232443903,-0.020761208706487424,0.037331087691309515,0.08852038078813684,0.11902180582587465,0.12063196557290111,0.08753702449091069,0.060240817508820384,0.04009731242472248,0.04873186196486914,0.04585954945786169,0.09979731399527932,0.11612825035312252,0.17619569199475296,0.19252652366375922,0.23182394414885327,0.24376246752727115,0.4637567773189364,0.5328075635188267,-0.20828103936951706,0.17269507423286576,0.29827277281240616,0.29086766793200186,0.2789314922937264,0.22348824896091812,0.18008051245300466,0.12668696562224763,0.06695350828987677,0.027917174832102425,0.002688944591633763,0.045581706707807534,0.12490067446758149,0.18203045941353313,0.2661482348168881,0.28560906146775,0.3258401999300662,0.34240590076353633,0.7339513469424132,0.05791605024922498,-0.08585764697907247,0.3392329412462105,0.22699236029826175,0.2637532143234149,0.21062667866461707,0.21958977359971008,0.1800606099161835,0.10101710312725964,0.05301017407411534,0.03877723192639329,0.09904210647991388,0.1442503553375982,0.15119312675208038,0.2002935948854944,0.18753517542287684,0.30299172420808607,0.29543453391619523,0.8516811628014235,0.1276558867285671,-0.07814369594735501,0.3036874808483747,0.15946591970546473,0.2130327319552556,0.14801993848061978,0.16172575219250532,0.1187434038966558,0.07640337767594702,0.044065715142325254,0.013649994005476106,0.07177821148260376,0.10960482690540957,0.12290520345419667,0.13201564196600077,0.15558965355112503,0.17734223642081506,0.23526370917615574,0.23338097830798843,0.4509262204119005,0.4389644204369299,-0.18071962391646842,0.18780378413301543,0.2106854583364822,0.20670367888506605,0.17675453734934,0.16889991606894927,0.1063957168168054,0.06483039720340268,0.020264316154496538,-0.005763078257252884,-0.0016856411672898433,0.0460959337765771,0.11337144250491214,0.1270758740533663,0.15297573423801347,0.1597898827756209,0.17225168995735907,0.19137882201652495,0.1843589854937873,0.22697479122915928,0.2547384731245459,0.5519482193740012,-0.07963153199654964,0.024476919521233865,0.3078318012492191,0.23644745257188596,0.24573198045423325,0.1651873822866523,0.14660960956182426,0.09814259027451708,0.042018492734200205,0.027489166434602856,0.018722333842251433,0.07791742830612772,0.18795326355238198,0.2262851105813763,0.25544747422765574,0.1998064470441591,0.2948457139623654,0.25537328130519776,0.7745504999013144,0.1733530844262655,-0.11162991982243567,0.3875386654151135,0.27022260785399305,0.3167983998264348,0.2236190421320079,0.20258121084090708,0.16469671606815114,0.12817512400577522,0.140757454510334,0.09502358560852385,0.21893776347239555,0.21233098180087995,0.5833372596924861,0.2068999004958168,-0.13069899673856333,0.23723224806862794,0.12416134879483047,0.15235147698827656,0.1215175774568066,0.14079748195069058,0.12765710567233435,0.1375601637430182,0.1433536499240705,0.15337408200584438,0.21131303974657872,0.19532464017900822,0.25190231909026795,0.20133732060161236,0.7309422996261925,0.44910379892213176,-0.21964963024408835,0.2719094638724447,0.1789284668293905,0.20279158616654497,0.13781805979232098,0.11272270130795015,0.036882801418170186,0.024464252534556603,0.012975703339014382,0.08996151607284111,0.1732584080616852,0.2026514429399248,0.1787614711272908,0.14452415896337933,0.16844074498350992,0.13179312544674057,0.18679563855376177,0.1528953248662042,0.3766331526815537,0.39703926469480405,-0.19782152084906054,0.22433982204233918,0.23438763362472226,0.2199810298584828,0.16647684574408525,0.11455689607459985,0.07918925593239323,0.044591785681271034,0.04287891212149213,0.086332274054883,0.15430509024257905,0.24132537636649024,0.23504077795830444,0.2605500673794118,0.21829072505256714,0.26531349249446834,0.2475678926421444,0.5627947612944065,0.26444672170016464,-0.22305492221873682,0.2953170209092323,0.3182537881915495,0.3032915055810244,0.251527002538658,0.2106252633332157,0.14332923140800202,0.08736053172175447,0.0794276694042818,0.09139029953701651,0.1486008385478979,0.1957602270152634,0.21324726112363998,0.25367468575803576,0.6027132928766096,0.021496860106459997,0.013228376802466621,0.14113588575756456,0.0920185558130035,0.10058313201702762,0.06613477305135179,0.03309683017851257,0.0007175718149961342,0.00524853246445912,-0.012953035368932374,0.0161640641536487,0.08700136966082858,0.1397991364270066,0.1666179838735481,0.1629473735848417,0.1984999372301168,0.17090146987239396,0.2312840403419846,0.18949777498243714,0.4336974020399504,0.3798156019909087,-0.1933496640069684,0.23854944555734445,0.23791786590148903,0.2329193429290495,0.1781661668672251,0.13939471859520547,0.07749390037712303,0.017384407438806378,-0.0007690448232468896,0.03390303598488966,0.08911291214042368,0.17624735968584365,0.2335785443969501,0.22719512530494876,0.22411647483923666,0.19413819671779473,0.25391799755012473,0.21646089502270033,0.5983512002330533,0.16214121808802454,-0.09768492092392184,0.32127512750493853,0.2174351138516332,0.2463531164350002,0.14932594383502548,0.1467504930190003,0.07545307654880692,0.03493131729479822,0.007288207570769248,0.007853015661636976,0.06615417233885332,0.15050202807745733,0.21385037073087076,0.2046142287761306,0.19909474072719474,0.205724264320775,0.23195896590987053,0.2096702009597999,0.3906818585136725,0.48118746756362485,-0.18911515978645918,0.1879632337910738,0.2771099512565058,0.24808669855855797,0.22856607040630636,0.17977552577214895,0.09973326080667447,0.06622573619325803,0.02477680728420482,0.02604751459025327,0.05501650406539811,0.13378426928293924,0.19982499895368452,0.1793676681079028,0.15714507401659972,0.1807764421764372,0.16382766181247618,0.3606236057624227,0.45716229331970504,-0.12304525290699476,0.13304349708654759,0.14516778007447184,0.17266608693016292,0.20319671849316973,0.16478293466954727,0.08324175035450637,0.043624935803918574,-0.01079107907943239,-0.01654872826299448,0.006772166921465188,0.04975492371555017,0.08149638361795356,0.05564037793911573,0.04389330898184055,0.04688022139445877,0.08748254551741937,0.07713450029082887,0.05012057344974711,0.05945525291493489,0.04680948452243727,0.0701057936389023,0.07529043564848448,0.12270732881276404,0.12877869492537675,0.20620970226279417,0.19066090822954296,0.6145038678355212,0.10978953113516103,-0.1008396366309088,0.2707643031753836,0.1776421173931545,0.19043358865114243,0.12091364333159035,0.08975777290093442,0.03562713293090456,0.03527376977242838,0.012987026756735562,0.02307282485535336,0.06222239200755132,0.14909919202072272,0.18062225064017123,0.17519588920844473,0.1801170629770966,0.14319523881700627,0.1890802039199769,0.16580410077945204,0.26373667061752515,0.2034135556096461,0.540188124643891,0.29830647912892877,-0.21888662748102033,0.30433330020595406,0.2870467996254017,0.2865327811257528,0.25651119165726505,0.2190896232209303,0.16790151241740417,0.14783401408228752,0.1134640540770859,0.1762847898385091,0.19057429232885031,0.3168062180117483,0.2239873679252525,0.6022900878761696,0.4432560350041127,-0.1739884483586513,0.2413370458845075,0.12369310203785114,0.16408198506999339,0.10474341805630037,0.1586097041397772,0.11836787264831984,0.05361315148713776,0.019099652473881585,0.015999330986429926,0.060789734856031875,0.12411970939815171,0.13696071967251286,0.1699538474416725,0.17028401472299043,0.21372662910586793,0.2735156474463155,0.47347499628003825,0.7898405212239668,-0.16774640024864715,0.09050627645622748,0.30926374492664715,0.24941869183963794,0.2446636024653332,0.1510401563796707,0.12185011965467583,0.08494410822366272,0.13116806738698578,0.13942782969824583,0.14867243947518052,0.20547500304618496,0.2436843969322294,0.25889096325634253,0.26117483149857634,0.2515655631158437,0.41205664383787033,0.5625451837661477,-0.16145571704619574,0.1953787929923107,0.34561136979241736,0.2859651993805656,0.21958849550718068,0.1652543067535376,0.11692426995994012,0.05368525370645745,0.00519952541671774,-0.003442034864385819,0.03763834063418642,0.08985222216085323,0.13248329953232893,0.16042076119787166,0.15543000267392978,0.15150276171110127,0.13609622079239536,0.17308572602964575,0.1576478376055017,0.22510549914131633,0.21797633471033653,0.5958518029440292,0.0046062454984884555,0.005828642316359126,0.35260467289618125,0.2277581665505859,0.237262278760126,0.1506266095007208,0.09292608436272047,0.03643990453685444,0.0020824490728001315,0.003527360826820438,0.009575884652744782,0.04325318007593966,0.0833781843598115,0.07486830380872443,0.06475947006614771,0.02263893880975626,0.0077644553954507,0.00390058197424667,-0.0006026951343655453,0.05871776823495233,0.1088191820475836,0.13682038460928284,0.13568460451578324,0.17954714209573217,0.1795894947227371,0.2639023489430823,0.25303371589255064,0.6206021325418276,0.1119486116613538,-0.0955943711885392,0.3213332630733765,0.21361514652090538,0.2310346044398596,0.15753910251044612,0.11776846209686846,0.0688094850113617,0.06184229425339779,0.041372105786501225,0.0689435883639271,0.06546096475606267,0.11550695458346451,0.1497643262317847,0.17681831692592717,0.16245783000113292,0.18434923634947378,0.1949793955191999,0.29232252979576173,0.24552535435959771,0.5940031504299611,0.4992881298061587,-0.2236609076512576,0.29913995427291346,0.2562809509460334,0.2678140240047093,0.2056250787335829,0.20387308892509975,0.14261713701692394,0.11458247502824266,0.041145459259957544,-0.007806434716148164,0.014022047402393342,0.05775974614565907,0.0973508111142622,0.0874529721245994,0.09043305663453276,0.1048333252624248,0.13678005257765627,0.1321818720333883,0.13631997195499115,0.12897408154974446,0.19046510798040794,0.12873803024104452,0.4062936747329872,0.3860214550694182,-0.19022178028635242,0.2456581373213408,0.2529926419198446,0.24855648868718463,0.16525682105723943,0.14113190972040843,0.06908276835347697,0.02299013617382596,-0.005138916785697089,-0.009139925846751721,0.04143777632104261,0.0989414254554396,0.15212242518666477,0.15571287655527352,0.12892539545202275,0.10821733621709358,0.07335902200994102,0.06821914790845393,0.10337292413586176,0.1188297826534468,0.22276439160431977,0.17054045332132098,0.45714819922147165,0.34453796632382716,-0.17824896716812272,0.2488187931255519,0.21200188993394858,0.21809938178054278,0.15206190091225555,0.16517194903651822,0.11890644949048704,0.061138876340736614,0.00748954450425048,-0.017304192671324672,0.022232709725360955,0.08167226935009934,0.12860130656045796,0.13754268077778609,0.13963161557219766,0.15904135777245385,0.14582512903772732,0.1750805422406085,0.146802734288808,0.22620930240383974,0.173024555303855,0.4280701379705184,0.4082297917663313,-0.19714320065383328,0.26127346933622225,0.29108867329665883,0.26928158849056705,0.2042407265070207,0.15746861402331427,0.10269664707140655,0.0360509881164507,-0.007232199007176071,-0.014663153952783529,0.04573724054703852,0.128022899603854,0.11083068594831032,0.11589787829533164,0.07076442937795878,0.05030313304578582,0.01947300846504569,0.1684547122888189,0.26812581186118173,-0.0014344922413671616,-0.006320816039822134,0.07375581650627289,0.07605984636584827,0.06824603973009286,0.052891419533182646,0.042365083687960256,0.015785263194863817,-0.024964823746132025,-0.0292283251585891,-0.0005986065758776934,0.08264405592006353,0.12365103609285752,0.13595664313456862,0.1436493609246533,0.12101994458907757,0.12292025264348382,0.10889519830255884,0.11443576310558654,0.15873125439828956,0.1950559926299349,0.25805900042250546,0.27373481560479945,0.583530127145494,-0.02559966556235177,-0.04967315730788046,0.2289835096543816,0.15842141744622715,0.1697666547481367,0.12630165218382455,0.12263329613112227,0.10908703514020571,0.0630198014264532,0.025321571472435446,0.010227445653895712,0.04838577625899737,0.11011217999337032,0.14534494911152038,0.1559048395814164,0.19653397622123342,0.23900931238659082,0.3075309978934925,0.3061181751198985,0.5808651153057803,0.2088688595587055,-0.18562321256486367,0.256133386536425,0.22878664502049995,0.2230884659243398,0.18306590884220242,0.2017713257325105,0.1434063703517909,0.0873635036901479,0.04415254598981716,0.0009283188113874748,0.04034550459225056,0.08102371692173993,0.09584840595264446,0.08495662512191411,0.08287950065753098,0.12807249291303516,0.15917128749670068,0.19348149389559938,0.19696817375602294,0.20736207347749214,0.271467367055109,0.5610414015196803,-0.09177281493167569,0.04691475299291106,0.27244856001294226,0.23785559928540428,0.2803341913061754,0.2192851769973904,0.14795501434133052,0.07250741356788457,0.014425541595695436,-0.021592684058360432,-0.0016369955699553093,0.0393118009424658,0.08297885539142372,0.08862210070275356,0.09879371352283113,0.1258248373086389,0.12000292522903795,0.10639342072942538,0.06964403551423355,0.07371405340544367,0.0939237864116627,0.10115352393119065,0.16122000661741936,0.14179242107981338,0.4016834330919787,0.5724867857145667,-0.1620443888579463,0.16899805973059226,0.22721747886510457,0.2042152694110195,0.14596685841565143,0.11865456523761807,0.0685587853446906,0.014884101718523878,-0.01011204725178349,-0.003715815332081705,0.048481335956484926,0.06594089293379174,0.12375341482426803,0.14059405909301054,0.12219592713531023,0.11104002853657581,0.09015570702422865,0.08776273763431128,0.12652492471224785,0.15989418640472847,0.2588175193814947,0.21068771576796355,0.4264557951684946,0.4740546744424,-0.18767173117296587,0.17838700879398758,0.20282819375350278,0.20422731742762779,0.14847982741057802,0.14069505728606216,0.1405495813309946,0.0898249027504324,0.028575294217109935,-0.015377126718523346,0.02482155618282101,0.0731323518563773,0.11966911716220416,0.13322491312562937,0.11176856932855526,0.11698239656909667,0.13935813210217074,0.22496386713971817,0.20535810915985842,0.23806878689562974,0.25677625470088034,0.5659690401484461,0.0039049795322417835,-0.06662782702893903,0.2627386994676961,0.19007790617737025,0.20698158376454354,0.19708951340568184,0.2023134974399906,0.13081022757233451,0.07099379707335765,0.0141730207619958,0.03701203355815969,0.0933882464793326,0.15525413099337104,0.2092067468286135,0.18638959673259878,0.2735079253031333,0.26484929004632657,0.5939927707190188,0.6159291653530339,-0.2078041263606754,0.2136902894347874,0.23980605879544903,0.2387049681831622,0.18728900153558567,0.16269440875904678,0.15133673422385185,0.11536151673902276,0.1264349043444018,0.08467819233213385,0.10745307704109315,0.15745533910252488,0.18728872893775278,0.18952003661648295,0.27502112628485953,0.4583123829093137,-0.09933293771935987,0.16337698344008741,0.21895644615386917,0.13535385669497546,0.12249209045108934,0.0713489745897973,0.0399628567643788,0.012909407541549579,-0.015044118835003404,0.0028194736508646736,0.05452546508941961,0.12025253711949556,0.13731076913393656,0.10445350016975094,0.09574674817186966,0.07391876573290301,0.07711784980278993,0.08687350793790077,0.10640893223319677,0.17290424879571978,0.20600371285746746,0.33633572292672237,0.6403177586558868,-0.11105745853064777,0.04234077729492939,0.2246484865909356,0.18076287344523484,0.15245542724285174,0.10030222337463385,0.09002014256787591,0.07100140926964954,0.04209977385031144,0.007077520234118662,0.023330345805279602,0.06624369240509141,0.12234484583964876,0.15215725012477385,0.14974430954084963,0.177266363435177,0.17673671695195173,0.26823414054719125,0.28476098977992664,0.599799007202058,0.021235217049030936,-0.01768921532880539,0.2688681712330897,0.1639908525302695,0.18419151247743076,0.12170273224182465,0.1192645248676367,0.09923689564326446,0.04745023220087466,-0.006108944190773011,-0.0010490408106382427,0.03956895677164557,0.06976136758778327,0.029668409085406702,0.0015266825401530494
0.07939151685070747,0.1573002997164441,0.18959280764919761,0.23548944137365954,0.36746820934755997,0.7270102133757252,-0.10612196472857603,0.09328257714531932,0.24355660864587245,0.17856978829027492,0.18378444964063195,0.12065316196802674,0.11231066358652506,0.0611784104628997,0.027051934477103762,-0.010619209617190425,0.009456124470012376,0.08255377719456944,0.0908090445895035,0.09103872153883473,0.06498040862186198,0.054399386721867914,0.07065577665008073,0.07063029845798804,0.08529421181224912,0.07428495847740933,0.12578226723009625,0.12617662003881625,0.19506185427257597,0.18661912180870555,0.6719973842971623,0.11093283221521408,-0.08949626266966598,0.27430827448944134,0.17430488008535344,0.1910505684965263,0.12436080895997123,0.09687248776012226,0.04767896957692722,0.021995563811929165,-0.0023579777320815037,0.014530813549687731,0.028392648071310107,0.09461276141051085,0.12334551657339377,0.1395707036079795,0.11571555658730881,0.1421309095069188,0.16716815739900956,0.7183234362561518,0.1406055987485641,-0.02170944514280621,0.1744625054058311,0.06790781919486617,0.08309880652950091,0.03461852600081853,0.0396487710588339,-0.001052813454858805,-0.0061427979016483395,-0.011777495195279916,0.050267712364802444,0.11336659804811669,0.15268532994135198,0.16099999085963235,0.15252264637060192,0.1484815647953902,0.18686393978765936,0.19816675495250072,0.31050201526529336,0.27143088163674,0.6944950977366197,0.11934396285347762,-0.09726164654228685,0.3446987442085282,0.22537018802057532,0.23057793234436444,0.15201687100376846,0.15372112661287463,0.08852794610584819,0.04677332514891971,0.014054652664644625,0.012755942014399136,0.06457434788577571,0.08470276507389733,0.09450264700273316,0.04492275233452643,0.014532181561414411,0.033480822882691164,0.01664630996081434,0.005055367780148178,-0.005993388100293382,0.016651357388396633,0.003933631362243936,-0.00800108355877078,0.005045601867186702,-0.004836276428341808,0.005628588857124435,0.03037921452835164,0.0644626523946018,0.08577621766450562,0.08936740386240864,0.11490494615199659,0.16004306453899445,0.14719718918726282,0.22395254969290637,0.19102549600550958,0.686990527579775,0.157057591478989,-0.11167292580098177,0.27547768958164115,0.17861877127730724,0.2068800987845224,0.13139475355860813,0.12590251987605983,0.04827084378484575,0.0382460311335144,0.0169839503429958,0.00697949771556476,0.0016133133108081682,-0.0044144099128822665,0.039689311152067974,0.070363650413725,0.09422063396321335,0.11611989604856593,0.11272107292917594,0.15679315372474165,0.15110868226555432,0.20048483947231371,0.19767841528149221,0.5291295384596291,0.24001711418070146,-0.12420535547540167,0.24188889977935288,0.20218703072365388,0.24263005004685828,0.23156193929882574,0.22099203244183496,0.17197139333197262,0.12578997648602414,0.04199736645381715,-0.009341492713386407,0.09403194723506472,0.16585756528300774,0.22767740602436856,0.2643963349106547,0.333155672919158,0.3144775851215638,0.465311306664489,0.6972042648803853,-0.13774925949150624,0.1594286095862946,0.20913691348508426,0.16857175384264675,0.1413025829030462,0.11668014455209814,0.10602649608386858,0.09281989521197688,0.06373185410425189,0.01680079161450776,0.05420278330709945,0.10702026888369877,0.1360125315062859,0.1443698558991694,0.16239213828282076,0.18059698391569345,0.25291307955055,0.3134496995815585,0.8554702760260288,0.09138129116494789,-0.08510483078261327,0.2828066972020683,0.1756846353688366,0.22646806822539772,0.15001459522611915,0.16906068972289706,0.12806293524500498,0.10105811091631263,0.061454248745894925,0.0656463584001624,0.14119804323339424,0.1632023289798428,0.22114630726363851,0.15839492582087086,0.4069971439345981,0.5325104089779261,-0.12933665246808831,0.20064636430255087,0.16994138872377224,0.18987395606892318,0.13057089980869305,0.10118316358362871,0.07015436933019847,0.038675564854053275,0.059838607007039434,0.08006024794745425,0.1800155514600032,0.21586282980253282,0.31719746342876615,0.2669490608399263,0.6524048869274607,0.41460097572273324,-0.18345035709869612,0.28421938033236044,0.1899721745451076,0.2183976636355035,0.15794743191209118,0.12896510607281275,0.07163478201544202,0.0529642629678487,0.009541704165568606,0.035418981875056876,0.07077938034337837,0.08682518979880784,0.08584124725659577,0.05532993186678239,0.014191842485643069,0.0007550924511983008,0.014932153998435735,0.015832573064992705,-0.013526876976946163,-0.004963901899192678,0.002920771870515848,0.028236773254259117,0.03107388190495427,0.04650159353815797,0.05560408975669514,0.08344884149667268,0.11428241946736259,0.15839352944936236,0.16666983558874793,0.24329314566284305,0.22477204527686825,0.5876740985515092,0.5308683358248608,-0.2395363818869139,0.17366652058486268,0.26571128385186216,0.22662320188241394,0.1998739287261736,0.17323568906073034,0.11681081335848144,0.10657947005836368,0.056074558790964464,0.033179244108620096,0.03233972923309112,0.0336512251336766,0.0820782863067758,0.09217677704476308,0.11508956466529947,0.13948495973145583,0.1539900793364092,0.17643264830717909,0.16846842729332068,0.19345374548027297,0.2274432410682092,0.287550982459532,0.5909802456836323,-0.09961438431718918,0.0633257442642125,0.3629922457635651,0.2814100998771799,0.28654235895802127,0.21212886882897783,0.18530806273088535,0.10663937149584808,0.06381663392156149,0.034827663285071794,0.052594909083047425,0.15351889647834727,0.23850323255204905,0.29138709466026563,0.3261558553724819,0.35044677606905866,0.43734009606376056,0.5437334650929513,-0.130113632014998,0.006779385275302529,0.3250314786169475,0.2690649285294099,0.25058366385338826,0.21189517125797813,0.1559428317287128,0.11814601440548228,0.07100283989074313,0.02886852472573376,0.041692968879389204,0.06405402756497146,0.07843641341126024,0.05055823340637925,0.017460354780295468,0.020119799584524676,0.025003644287070734,0.05729358834987012,0.05207694357392999,0.06711961477679834,0.07498452766952908,0.1020037343159502,0.14379588521218797,0.17267534468457096,0.25037523845069276,0.5438228287105767,-0.050705023197013296,0.0068927930350003025,0.26206056014185125,0.20887167347903293,0.2141132116496697,0.16537931448037596,0.1245969054307568,0.06381830691427434,0.031200066749494892,-0.01724080188272591,-0.012662767346674295,0.027046594632482365,0.08850426185611782,0.12106702636344376,0.10678554166384892,0.07484496408347412,0.03564301965739786,0.03601917858001041,0.02014441242910712,0.03048956597074411,0.056091347401715924,0.07589670989976358,0.123531116221684,0.14634560294901108,0.17432062553513436,0.2229805853523258,0.22331408449857176,0.3915846964117368,0.5410655160975294,-0.1558337422958475,0.1496556205432431,0.3375483303219123,0.30173051329424255,0.27157602032487455,0.2225024167139937,0.16129255020358393,0.0943607846074911,0.03850450424411679,-0.01834974167266305,-0.01769955022744065,0.02078833633853667,0.11091851660669455,0.1276485503173434,0.10636480124270058,0.0908347212039957,0.06161607154996363,0.06058118077878803,0.05611799363935123,0.0662532535713432,0.09972131370790141,0.11796454083697872,0.1688529232380524,0.17292536717083357,0.2163435610948762,0.2180213310125485,0.41284536157978846,0.5571352059409164,-0.17900165255881922,0.23594469429132842,0.35573840192109923,0.3293741494523566,0.30264359080292624,0.23408824287035754,0.16905081524670734,0.09612359838385778,0.03353807518318763,-0.008447830348891886,-0.03326721602385825,0.03779430879359901,0.1196857536436207,0.16014822614905216,0.158429174551527,0.08923544614057198,0.0932886576437348,0.03600403284242475,0.3767944613075561,0.4199104751939863,-0.018726836337868643,0.001614498590769654,0.03443727805299538,0.07992479270592587,0.07598528310428637,0.06894094628592401,0.05370350431830662,0.02035095410310399,-0.008496104467372876,-0.039481756338950895,-0.018855302411011243,0.0607745564712448,0.14248868310855112,0.14765998103846445,0.11398024218828075,0.09664237572970481,0.06687811061569851,0.04270547182100312,0.038089928880170876,0.022307840172873405,0.03129115455528828,0.051100019416072014,0.11946929969203209,0.15682638961432588,0.18336700245606186,0.1799737725929785,0.2525377930230502,0.20675220380686604,0.6151460421391242,0.3375975843982961,-0.21114978874313178,0.2491103205840492,0.2232543167346461,0.3008900993101954,0.23180637786095357,0.1863248018956662,0.10546217827691698,0.060389739109450224,0.011354068572541452,-0.007718118616336201,0.005165551579471954,0.026207995010396164,0.1135514908821704,0.1872932707065139,0.2191828413240221,0.19883814129446395,0.21212583382959338,0.19880487568108496,0.24683539597403575,0.21298486201498182,0.5115124340824256,0.2607150074687331,-0.16204867960891764,0.34604666113044674,0.276902123185201,0.27507310134618546,0.20867280349098785,0.17747717268548668,0.11080756591224979,0.061673620336135354,-0.002241430754661656,0.004257856186864465,0.06516147513423368,0.17025847472714672,0.17747982496235648,0.15913926669379247,0.16324068215898263,0.18440385199345527,0.1779255827138287,0.24720785383087185,0.18658273965979688,0.5491867552962401,0.15279821835883528,-0.09680540387064009,0.33602817046053673,0.2358607570650129,0.2479338895262781,0.15545354290359473,0.13345294952801787,0.05040334919399987,0.01343493059705672,-0.01463570877328865,0.018143023034833113,0.07980613333529135,0.10624755793138999,0.12059616973022232,0.09778148896348193,0.09467277512072811,0.09014984300581749,0.09424452768254137,0.12442887198881832,0.17792666457689274,0.19950717508753912,0.2634306764674998,0.2660728747890316,0.7392000853385128,0.04953200851940952,-0.03835536308916599,0.3170132707260551,0.23654560443031003,0.28370272802438334,0.20739713764995285,0.18282860280835816,0.10172113029245934,0.07396281314225939,0.005492161640309926,-0.021965198495801093,0.010578208005668166,0.06564172722039639,0.1187202789789011,0.11990613305358934,0.08734034805603044,0.053381123758499884,0.019454157908927978,0.009312852296808637,-0.0008051052022428333,0.0024749564725706284,0.013084159356589846,0.021942096963221788,0.05636038848730358,0.08149152561077687,0.08739274367310801,0.1129699453852022,0.09771896842177229,0.159803230089502,0.12114070737986207,0.4492073654443269,0.511330480642928,-0.1883936933978205,0.2209964511247514,0.22634621605519917,0.2272944578437999,0.165813904294258,0.13642233588814678,0.07891591615840621,0.028752228517166706,0.009578258071848452,-0.01635887862723159,0.016113996974121022,0.05335012882754185,0.09584348283617883,0.14807111973145778,0.14122361919737397,0.15231630585501812,0.13902461738509184,0.17055760124094047,0.19895028542404888,0.2942673646864073,0.295203322183555,0.7425347008416519,0.05140879355832908,-0.059777786080099836,0.32210054766950286,0.21731099738677473,0.2354627354104201,0.17961608781991437,0.16455759441433152,0.1190424659587599,0.11622580583427096,0.04631057692432345,0.05301387711347084,0.09063775559393664,0.149344079170084,0.13923940028530024,0.1798438028998699,0.138170067257346,0.4507422262522915,0.5171786906910911,-0.14488568022400466,0.17087145124048864,0.1315119912828202,0.1234651492781351,0.07985352956225232,0.07082581894273615,0.04242378984864933,0.03439072761473938,0.00240419168281076,-0.0021887545776277284,0.051357157101358374,0.11388914727521987,0.1294809574809982,0.11725305645758459,0.13107380743676636,0.16402244061911023,0.18434585932426456,0.26310447312340657,0.20861276963735523,0.44516663085764524,0.6444395796626124,-0.20051352613505172,0.18039381061651352,0.24570523168332634,0.2244128845106687,0.18465464084458172,0.18324833863142903,0.1290723175159512,0.06234646310818755,0.01858630670631683,-0.0051646264040147265,0.024004816182282368,0.06261836491409113,0.0946291836358187,0.08009327592751486,0.05435614638618849,0.04728282957606659,0.02452257780432262,0.021660828681551426,-0.0004523843696555225,-0.010407531352707207,-0.00570190039330688,0.0028554087382228043,0.014168432835613014,0.012923819253361528,0.024747157118403668,0.03373347901405646,0.04093399233819971,0.041337542139610196,0.03245393905329273,0.057275200821595734,0.06422019223657868,0.10456489786579722,0.1288558542916774,0.2042476769637451,0.26616180025569813,0.48941811427591564,0.7415379330758596,-0.14581441657754757,0.08576755158551227,0.2920633874229512,0.2195527099307062,0.2097225231098302,0.15252161061120081,0.09588595889132631,0.10121831765042724,0.09685665029887285,0.046556411474321,0.009362560657740857,-0.0035423561108225746,0.013840798136321905,0.014074718249504174,0.02589291530595951,0.013965759232298917,-0.002384732894119173,0.011212900596622433,0.04465748958747482,0.05247801272808878,0.019831143834777614,0.02509275311060582,0.03183094775752757,0.025042046973338002,0.04812236854422072,0.06560458166300114,0.09713135947179756,0.16536738612733187,0.19916731424431003,0.28868571846640334,0.27596564526102546,0.6548968520674693,0.0568981436405617,-0.06672128379397224,0.3076922057022571,0.21671114797664925,0.25620405346821384,0.20289185997569106,0.20994158113994818,0.15983938548095777,0.08689014824936106,0.03662591485046706,-0.013739552807678556,-0.00011012721876651407,0.05255040560485497,0.10266385307591279,0.16733818801739217,0.18793990421679851,0.25666901774402456,0.21597589828336605,0.26090339488267844,0.22872553632085713,0.6978765633422582,0.1614984500028736,-0.13574798957906026,0.25313008745351195,0.16155345622491854,0.2299258188130737,0.18037528192751365,0.1589990560055872,0.10277656007809037,0.05401561970432267,0.010011396839639716,0.008295841045112134,0.050155251510761174,0.1133218282438637,0.12517951834324514,0.16868095359260812,0.20036637759833822,0.2195876916314421,0.22674298176597021,0.36396514516465167,0.6106983578309162,-0.11614481277391027,0.050432902230345064,0.2126139580665711,0.15631819337426345,0.17619813587490915,0.15102287094739184,0.1490548762710438,0.0868254266674261,0.032449249649205446,0.012435717364497556,0.01942449836372271,0.09197589480179341,0.10341237557193841,0.12097777456709681,0.09130815832369024,0.1806091671831324,0.14686511348967052,0.5789447598948272,0.5544144212384078,-0.1407393615958163,0.1476281488305839,0.08965813677365779,0.10698975983455307,0.06243282884250983,0.06558783715454511,0.0601409292519098,0.0420328119481173,-0.007787465982246384,-0.01462243037564865,0.014874402503554046,0.0654971560563982,0.07897486995299922,0.04496322958678437,0.03483513757799998,0.06307074379771026,0.11101388524837037,0.13069680517243504,0.1317847178211202,0.16272993024277313,0.15072661617206057,0.2150029794570912,0.16334202391890118,0.42627654436170265,0.5309093602205703,-0.20277288264561993,0.17955875914335515,0.2383218352483642,0.2281192467976729,0.1883628350083928,0.1441278717896455,0.10355253109542989,0.04603850204490384,0.006523614082936908,-0.012017524014722364,0.022022556525973524,0.08917011705847377,0.14613959697370632,0.1734555140330795,0.16263649606200598,0.14846664209132712,0.12752770021799067,0.13889900092986215,0.1346975666582686,0.19775355342918663,0.21766369407071948,0.6388191219994237,-0.03114028237784366,0.01247794205038065,0.2780134567324866,0.19460068217474671,0.22176265727338793,0.14634925993220754,0.1269092836975916,0.06252942973270398,0.04656296573026315,0.06132533866424951,0.05140445215733528,0.15842539456407972,0.2014029623792735,0.2706573658479369,0.21006262301207654,0.4749567322722091,0.6049458009799411,-0.15434002209797634,0.1834253728734156,0.189257420180293,0.16303516701075,0.1458303454452026,0.1163119022069723,0.07438057272158807,0.030636159116081974,-0.0020688423586610306,-0.00567347111634358,0.03592849643180944,0.10740974854417755,0.10920658144257657,0.11425205752616494,0.13355033853846743,0.1304975969259621,0.15968425249578883,0.15057417093167944,0.2443595973191351,0.2393700294743255,0.7094906846862753,0.08903391347097071,-0.10090507985563596,0.3079723765619471,0.21307801843003518,0.22484320781636682,0.16046298709260365,0.13646770702866115,0.09056959934029368,0.07332313499121133,0.021127896632202648,0.027353176565755324,0.03277737080518167,0.08060657941445697,0.0750762030560554,0.03838906350967201,0.0058737640269906225,0.0030047200762173807,0.001082099170634511,-0.0007437291516010256,0.029396500149997902
0.471961485454685,0.4955337395092701,-0.16056325084504178,0.2819024639633957,0.22606551913025,0.2255668238924819,0.15599036243654849,0.14287454398245755,0.10781932730923593,0.0554496225406755,0.010544788891636308,-0.0014250584795155044,0.053145846557619225,0.14847937040521889,0.21544050918867927,0.2130555256354595,0.28175325142719504,0.3422511183850962,0.7309239377493404,0.044027435834866895,-0.03023893422931868,0.2835049230062944,0.17294827976405272,0.18988454567967622,0.12568278493327578,0.13093590383777376,0.08670062944713279,0.06131920090896919,0.008050415160232988,0.01909762125312501,0.07100651956737769,0.09466570876224488,0.1067804556057006,0.08904257614630501,0.0931116903393346,0.12099802681714256,0.1624632457897294,0.2240227656476688,0.24754041822721704,0.3181709740736899,0.5765739899849965,-0.1020384465025972,0.061668749801694685,0.23921231793663772,0.18326074783439006,0.19254747991946228,0.15022681165828713,0.14252022160432695,0.056978415427301476,0.026148573068690197,-0.006588228581881311,-0.003075611443098691,0.06153882779270704,0.11065881813268055,0.17404146631638406,0.14269703601668202,0.18866501917577827,0.16675932849590194,0.4705309925683749,0.576982299212801,-0.12171263263405589,0.15320014096751422,0.12463940494174028,0.12458848814920252,0.10104155734692248,0.09033260936931005,0.10318928495643467,0.08923194338879369,0.09610129553770341,0.09145245753881287,0.17848547543972942,0.20387964513696522,0.40059486280191625,0.43029484507125826,-0.1279679503463486,0.2295988511061733,0.19240920790979257,0.18913031070983224,0.14207252362920905,0.12363124668295802,0.09948857437165598,0.07197164892745518,0.026762142804614083,0.0520373833517238,0.09401175095432168,0.12908105059217728,0.1251047161239969,0.11334219828136362,0.09880234102604571,0.1361124025109168,0.12332904083431781,0.20489012737522475,0.11490638445541612,0.645762533523987,0.1856813490630755,-0.12295400282834833,0.2605848706432612,0.137652660091798,0.17973134692645815,0.08973688856240034,0.09175920047372962,0.03834002060797854,0.02468605003526794,0.028795821306594672,0.051647133021413764,0.11392882070515041,0.15449869465362978,0.18362614885740558,0.1467043867691437,0.16514467588775664,0.13058717931541344,0.39630137304041,0.626322248779266,-0.13509582758054023,0.14247850779385426,0.16074168429060917,0.1308381620893078,0.11641210846698884,0.08300462099257913,0.0444488033143952,0.021633987483949773,0.03051973732321202,0.07171119771563339,0.13359925080927001,0.1708110880208931,0.30805232420348216,0.4928653456526331,-0.05968082138151854,0.028380758014786036,0.0625867448642995,0.06018288497000615,0.0747941423760629,0.07008780861077632,0.04103362131358766,0.026196267088557743,0.00400472635761742,0.01070988498579156,0.046956024659907024,0.09029319622143153,0.14890390837711992,0.18058888179134797,0.2630670714741042,0.24716726148827017,0.30639204151039046,0.2761891322141945,0.6193721054849355,0.04806251760217196,-0.10807160018998267,0.30230586935266157,0.23044834836520864,0.26268092959122796,0.21295753544345597,0.1816593389319568,0.1183322940681788,0.08006429290093958,0.054326133704496495,0.09033222117274951,0.1340739483446521,0.2034095998175113,0.25435796715766085,0.23921389676218147,0.2884897836477127,0.2596809446427657,0.7199836555284664,0.07442298274049636,-0.10034058522619403,0.24712705495082574,0.1397826503920059,0.18212449408113143,0.13266670594883356,0.12692274841635365,0.06623275739153664,0.028761741070868985,0.017511284605344186,0.03225520500346503,0.08511766545066198,0.125295300172366,0.11320077184761725,0.14318691654770996,0.14906633130028113,0.18156679229601283,0.16446714111049326,0.22039233694692542,0.20583395081464373,0.5115349271061582,0.1504404534541298,-0.1588199227677812,0.2308001633283757,0.21718101054332736,0.2563025799663643,0.18001277904508545,0.1439310231157354,0.06715813644027516,0.03623728708577664,0.017716903587054997,0.036024554676388286,0.07815336461947371,0.13515012273169613,0.19535562827575495,0.22952144307187158,0.20264159932914647,0.23243488308702512,0.20289576868369957,0.5142484919707596,0.405242312193965,-0.19672349896830849,0.20170277405510187,0.1847265675450515,0.23959537319981739,0.19063692781632652,0.14876921130439524,0.07610450051048212,0.01785767583271603,-0.0021631988724497148,-0.004710162378834207,0.05500268338062304,0.09220655427966905,0.11187626715788683,0.14226832365093006,0.13079519364389808,0.13681754137222202,0.12935513333576626,0.15945848736014054,0.15468454072698534,0.22555110784904947,0.23518293254558753,0.5912982332414388,0.0349691170083428,-0.033284254264644875,0.2746565743962722,0.1996316539297449,0.19917677410661963,0.12981404141126088,0.0777567450378196,0.02096715183466653,0.002607965551515267,0.003128001434144746,0.039768442398433676,0.08663184822043135,0.11651623320821931,0.11073688950631767,0.08334602480257576,0.06843452419198932,0.034133380415433116,0.05859406432889329,0.15386939659715246,0.5804469115779063,0.09167593742881487,-0.022509614353738206,0.12747983759687748,0.04593315082462975,0.07396643124558863,0.036624367669709404,0.02741498401167468,0.004652437167489988,-0.013472595784478377,0.048244334997302955,0.12957635669854647,0.19377275123562332,0.26484743268800837,0.24867302865057908,0.3954056216070208,0.6810328982923332,-0.10146695514746412,0.09801674087640552,0.20945782548139522,0.20830699866435898,0.2050273150392286,0.15834864287852052,0.0882815461610679,0.028515534737818433,0.0030631864937461246,-0.016905582872382804,0.02392463258069213,0.07880470994823968,0.10798676929916375,0.1250066297273345,0.12536142749375528,0.11253896895518554,0.09622129368522239,0.09231516549039895,0.09066503254923952,0.12252403185116975,0.13785202130224203,0.2091231818551866,0.27740001708933465,0.6848130448303827,0.01854204108428691,-0.028815377633190864,0.30523713720101747,0.21104802210251444,0.2095998189382135,0.12155969694771679,0.09929821691060514,0.038699657565565836,0.04438518944388623,0.04349317151274365,0.05244196299169229,0.08422221013691526,0.11627005793496824,0.1559977918663851,0.14833892082989966,0.14091876872581585,0.17075111462734338,0.1864412685499353,0.2517882435013031,0.3175996283821002,0.5512003841459333,-0.03086561452223016,-0.037870387335875784,0.25883630883007475,0.19073408565196273,0.20141076124628615,0.1550555335881921,0.13895604910276566,0.10573855980405387,0.06252811705734959,0.041244555704712166,0.08218056486654868,0.1474380841897482,0.1946848053342237,0.15758894200731868,0.21676198059367313,0.19002048809050964,0.5408121217285975,0.31386561529103424,-0.15408098386735025,0.19554875734788793,0.13068464528883889,0.15901194989803302,0.09580365848240513,0.07609666020807114,0.045626753833462506,0.001683723206100287,-0.004950257403285722,-0.001835746700816355,0.0392733245838236,0.08289907195324672,0.08637349200404412,0.08449602976602698,0.06820645681267186,0.08015253183286478,0.0860321261873457,0.13751896398798766,0.13231799176447284,0.1879280885474424,0.16456551512847997,0.4801771366845146,0.4347133757472002,-0.16159976214199498,0.2038841466398379,0.3214189446775281,0.3478801677208093,0.31560598137672724,0.314650185193541,0.07118664348448785,-0.033582622521939415,0.12112124219998795,0.05262768747332151,0.23943666461833035,0.25765806694050464,0.3251197694350474,0.27824976721159633,0.23392798524873368,0.19206890580861435,0.16590362973974754,0.16880413340189238,0.1488420889862511,0.19753653716653155,0.21176130951024358,0.5747793843139865,0.03943005637673538,0.0011827507792297564,0.3050058291202389,0.23416112889352708,0.2500611772082142,0.1940106985896229,0.16720664035163327,0.14275106732021806,-0.014024449793189736,0.09196992806617557,0.11107995618325106,0.14621238865602262,0.1793675496761367,0.14833691208384783,0.12750977911623537,0.08127955280335644,0.05595621435891956,0.0473774518015549,0.04791313180539433,0.051162300933621285,0.019957916697670396,-0.005297899399985882,0.009360452883868641,0.02295653660762787,0.04387774960504545,0.05848114481219027,0.099651596115686,0.1582072045586264,0.192232450061818,0.26102506364087025,0.2594035212716268,0.6612350362510944,0.11722956829522878,-0.12414641892302969,0.2871739947580671,0.222954618967467,0.2472242679420696,0.19700312802178196,0.1858544463076198,0.09584131757850302,0.02132124589917216,-0.005518057658966033,4.058204833087359e-05,0.022517574908770564,0.055397468128948524,0.09741690012707421,0.13481006147370775,0.1373769481495764,0.16263605989451446,0.1163429711454364,0.12532533711527055,0.12088323519858972,0.1707502125991125,0.16900049273749154,0.4893385468277817,0.2795975364249594,-0.14771505327184412,0.27084949814902104,0.2430354843718955,0.25105110910576806,0.17432232180769114,0.1488257293533894,0.09081414744538946,0.05103084016920344,-0.006704493022866818,-0.024123546048644334,0.009938553211378045,0.05768686683276474,0.10015681494379441,0.10215700113585664,0.09592623193166439,0.08331638213960454,0.0640042443300217,0.054786679988817394,0.0358724021489914,0.05539138010155141,0.062021345087238756,0.07126565053498263,0.10874068491569215,0.14923806967834918,0.21474117000800277,0.27855682248577096,0.3979860674311415,0.7010225174552057,-0.12283539041002331,0.061230380406429356,0.28280606185891394,0.2345449866624103,0.20290311794348612,0.14028314248959683,0.14351512630894225,0.11783744044859727,0.07480529866532458,0.013478057478575552,-0.007471871908904595,0.030616914047692838,0.07028395101815,0.08975092601044947,0.07442867328401936,0.06442007154634967,0.11119247511603866,0.15857187813490398,0.17106486179230088,0.1890230802522778,0.19388668736617806,0.37097495013866777,0.3984966804952284,-0.1471406780553583,0.1408582307649773,0.19832972636977708,0.21395676528434077,0.18911684266697232,0.17111672133206998,0.10490240503411055,0.06560916442280733,0.014235150226694209,-0.023024081749815437,-0.014967794299699817,0.042249879993520395,0.1099536196897766,0.1173973983996462,0.11469311241416191,0.11257216446003399,0.14238750414818363,0.157904489815817,0.13255168673853368,0.18590255775206246,0.16057189517732207,0.2739046934773606,0.24537541828796613,0.6595128232101772,0.3844495958572321,-0.19749613800868493,0.3033730571854642,0.23848934088730117,0.26426832416735524,0.1981371972077322,0.1710610618368828,0.120127564724054,0.09057275223976927,0.0070707754775469756,-0.015312615214803989,0.0023683383989489145,0.06519152910978683,0.08912807811211185,0.07794148789286443,0.09247467265249723,0.07719000243788793,0.09606254896108092,0.06897152118565111,0.07457280030077978,0.08077349287640008,0.09287244901458247,0.0873653512819159,0.13093334763441264,0.09046489408047317,0.4303809321953808,0.5355781607948465,-0.18110201280652594,0.14422567953651094,0.16661318571938327,0.18446522929418097,0.13705932263295392,0.12006853951844222,0.08187043643704082,0.03855462379024843,0.020464948330164375,0.001999211521546231,0.02539849535390143,0.11542245710277625,0.1699342109710281,0.21799394240047093,0.1736723346884643,0.246747314817167,0.1810859562489939,0.5615922576770479,0.5297126437416044,-0.20449953665220816,0.24539502527912507,0.18746698000406417,0.20230465493024066,0.14608703339438803,0.10667124273056297,0.07052848869784965,0.03348644050710569,0.010973733710495563,-0.003999464630685275,0.024792325902529607,0.07567251769793018,0.07441184689628721,0.07099508532145074,0.06357867892125287,0.06350666993863968,0.06529034928915803,0.07219705967687629,0.07961144335196595,0.09906731717243564,0.10622997302624468,0.1754224945916187,0.15206434612266803,0.45873109789414274,0.5542509636597619,-0.1880236413303827,0.17364841839936576,0.20429898780510092,0.1971147367331725,0.15877797068058916,0.1438835177867201,0.08857049887561964,0.035192277563144844,-0.001791667051548967,-0.0013911469355729475,0.042390450537346754,0.07699052529201582,0.1323409002646517,0.15844824799290583,0.13144673469929477,0.1579089883476019,0.15734394960177137,0.2052249082959525,0.2090475407930828,0.5386224466165103,0.5534326363886833,-0.1826021402219287,0.1860772787555318,0.18714538198663833,0.18103720175495713,0.1726866011536734,0.14502657028810523,0.10816387853010145,0.07558664014955392,0.03920149482910413,0.03843174295777458,0.08104329980200886,0.1729371178492969,0.2160686944022006,0.26369088404543417,0.2658309935721745,0.4914630534474213,0.7684359250242924,-0.15503461811409489,0.12829740013219942,0.24376657151940379,0.1751625648673359,0.1684922418231509,0.10953313375997129,0.09581053590836779,0.07674533285393013,0.05102167933209513,0.027857165535279855,0.046761906543627926,0.11114450826613047,0.12299623042378795,0.13529942263275954,0.1390591923377306,0.16208868206679813,0.19056112866780556,0.2517450289462243,0.253849889284013,0.3989898734713408,0.6885151212828138,-0.17168716836893028,0.08042406568516476,0.29916953214027714,0.23970337620519264,0.23295909394660053,0.20119636173617161,0.15544370255604775,0.07877826179920032,0.03215660694195481,-0.014394060794864131,0.0218099148261509,0.06049762146131968,0.0989534977123832,0.09838152281493484,0.07595411636465864,0.10180831612718133,0.07309782595899411,0.06961505699619504,0.060665359069857865,0.05696710629134204,0.11516924105849634,0.10687459385297948,0.1923994193778538,0.17270744853521283,0.5281444937440466,0.3241992080836049,-0.18849022456753023,0.22371724474782184,0.1824163353142644,0.20650003430754998,0.15009121763601022,0.10978617684176098,0.07856241811115129,0.04592118672440877,0.03036359614434274,0.008664126583454381,0.010853041585108887,0.07222915063124778,0.11212093924339263,0.13101700794478985,0.15177623957494565,0.14942451826941927,0.20951098284778208,0.19844619293811927,0.5216982747843085,0.3520169233884954,-0.1511725839337881,0.1964380018203963,0.12936432491504077,0.17157937156944408,0.12908480620265553,0.13444883735953725,0.0884546482597806,0.022350186494553326,-0.0017818606194314993,0.0003615527758993872,0.07826560078483648,0.15686320284899122,0.18958887205794814,0.21190772927722407,0.2318322378263791,0.2576080815968487,0.3708044435565825,0.7328113113405291,-0.10793101643496321,0.0403945974727005,0.2476710718431119,0.17964729734782056,0.20520863884187504,0.1549300229829152,0.11587886679190253,0.0637431858495668,0.024316738857222582,0.03636627159983156,0.11200128238265158,0.17116023452867848,0.23133886697010295,0.2242118619464571,0.2755397060130159,0.2313767115926339,0.4327469820645626,0.7283724183874076,-0.1523619498296803,0.13491813063459893,0.234154517357571,0.21038703518973184,0.21789729546977374,0.1827043291379365,0.13315958301528663,0.05663377805436336,0.011931551258471782,-0.020375575146202383,0.012520925591901705,0.07964158753291883,0.07769620537070174,0.07823461387834531,0.08087994434750154,0.04957320792093628,0.04205307217668498,0.013739031137000823,0.006808417142240816,0.0037569280904946344,0.015152603183511974,0.04617807062363836,0.09413751340974506,0.13050304326962245,0.17376739526828439,0.1666011711518071,0.24046150927674137,0.21126426594927386,0.6368094038307384,0.17959815985200464,-0.1491993003463411,0.28047588134448304,0.2251172190270807,0.26914893906352017,0.17938542255954465,0.13986163052790315,0.0527989729975617,0.020626428910806047,0.0005460785630097293,-0.008273904425188962,0.02708284615100786,0.07242537041938432,0.14528869063440972,0.1833642720080356,0.14652399073266595,0.11384174881586337,0.07962441387019739,0.08164434862834556,0.1106605941951942,0.11327774646265523,0.17279082787286773,0.23228723878735616,0.6600061588685593,-0.01951957308197529,0.018519142569030197,0.2692747833138811,0.172308599027742,0.1818188910609199,0.1336566102420686,0.10034708004323688,0.05622514167215996,0.014196829151981501,-0.020294238763690943,0.007730032313661459,0.0801053163377875,0.14121367662027062,0.14170176414844107,0.16387538201604457,0.1586405163471552,0.16696260047694433,0.19660149336938407,0.20247053484499747,0.23333126194058343,0.26615594319061475,0.35369002953333667,0.7300294359195207,-0.1344991330997647,0.1311214955173913,0.3730332192749399,0.2990303499702392,0.27564771930865306,0.19125314091912557,0.15890320976464897,0.09534026007649098,0.03695079737947887,0.006933084400474492,0.006847948779238771
-0.02710652423884379,0.04212915374769879,0.10475353789304104,0.11135313351850853,0.10016572802839888,0.08832117888019383,0.11308820725981383,0.11861478070923295,0.16220921566847987,0.1587262917015548,0.27003725819330315,0.21360088634563207,0.6314794575707047,0.20747709352056656,-0.1697952654490757,0.23925692690029854,0.1824487037799972,0.22024384387862908,0.16827825984393793,0.16527048553412152,0.09603884218899125,0.03853968925067889,-0.009244981485484336,-0.008312258668114072,0.03852883683431774,0.11326244300078156,0.1363883085202131,0.13507981611061196,0.15659417201071804,0.14218048604297306,0.1542896358873314,0.1542315397624027,0.15401317635740547,0.21612180657841004,0.2241829003646741,0.6631216927943494,-0.005707824138353658,-0.02833065050910205,0.2859064113076378,0.19012087006848133,0.20159070614287622,0.12493891636906106,0.10362474207778123,0.05329658999180872,0.012528830544722567,-0.0032646255691436586,0.0020525097550022644,0.05376076281985991,0.09913587647849086,0.11578118224506077,0.12440055256052737,0.11747325573467071,0.1657864425194816,0.18001205655165736,0.23120924715208124,0.21786824504626343,0.28365806638762797,0.27795273895858974,0.6886907199171992,-0.017786763041011185,-0.0232518166349839,0.37414919232180943,0.2708970175429521,0.3033572145422121,0.23825611117159243,0.18403061745563756,0.10640901041095543,0.06206284213199444,0.0048470192962571015,0.025663934060156053,0.0726792073623531,0.16044232320789378,0.20701239784092854,0.19476877275040932,0.21539113263633333,0.18805334350305178,0.3590916472631895,0.6192830553350827,-0.0924644373844223,0.046829456253280596,0.20292284949476344,0.15430287258323927,0.1743342871289112,0.14004274979212283,0.11174010605625787,0.047844188603805675,0.019320480237498626,-0.016991977193256354,0.01725074040224075,0.06643406172301693,0.07430620118816653,0.09849719619321759,0.09362599702670277,0.11009278693830744,0.1383543006471593,0.13478051581796416,0.1868559068470965,0.17790254531500918,0.26158833600388076,0.2286730027532477,0.4785950136824377,0.5359569921553565,-0.22052018947668078,0.23752236062166787,0.29344681803035844,0.2726122813347734,0.21811875089646676,0.16634556298297315,0.12560522813531103,0.05973537062037218,0.02568832474010102,0.016334967584238476,0.04708650557202011,0.12299958442676896,0.18000615341030024,0.21215747607673344,0.2431421400110415,0.1859436276179464,0.2610060363494555,0.17712930612563968,0.6956541697271703,0.23643447804672485,-0.16139678321284717,0.26005893857872603,0.15169959875954436,0.2298862021546865,0.14968590392296363,0.14689506412290992,0.07954367730644282,0.032221755709241934,0.00548674680174759,0.012102405814804177,0.09057238700487943,0.13902507556483207,0.16669838630214462,0.1529885229589904,0.16929662609586604,0.1601990585523407,0.2180297405791013,0.17087367050637778,0.4505360110426223,0.40699373883221546,-0.18735216038418678,0.23640035851042904,0.21825554514118498,0.2499754167476261,0.17110724260852955,0.14359293765630218,0.06698672897972564,0.024269772637770803,-0.011326633577837458,-0.008765122900165262,0.07562130663115961,0.1347664476625912,0.1592233999462445,0.14720672720068192,0.13207328767552384,0.11545761193065318,0.10053193236501555,0.13216762071498991,0.14582663387315375,0.19592017258390448,0.24473635389084034,0.3421731158292103,0.8016034621696255,-0.11067957496227823,0.0876037786022188,0.29690502464971147,0.20364659732406618,0.20576132407938408,0.14149272574007724,0.13823041824603727,0.053900132925049075,0.018944922615369814,0.0013899857593982043,-0.002978046309522245,0.056976711809926604,0.13776593887346875,0.1629517770401013,0.1674581623594034,0.19552445706247926,0.22768581964857582,0.23887641735976134,0.2523027641228687,0.279304759528731,0.324855837312941,0.5832095596820178,-0.1149564349492662,0.03980649175491056,0.35396925118236006,0.26981704623456165,0.27687047441796897,0.2099568424183845,0.1680722576287497,0.08451833025172233,0.01887587759182449,-0.005974804098806534,-0.00015682787757792177,0.08285332742441216,0.11582529491501031,0.09915999892151432,0.07590312538036469,0.04846987602200213,0.03201601664635332,0.013080622619800785,-0.004825116761647758,0.0033992121136127034,0.030799957204057492,0.1000943833091271,0.0931235502748682,0.1177181896767801,0.13095382234062758,0.20702767803505875,0.15821221887076534,0.5068166174804398,0.48393447129610295,-0.21887557176513742,0.22548793979181375,0.24204888303555525,0.23623891993011822,0.16757564356395135,0.15124481025578243,0.08205223164246539,0.042579703519224694,-0.002175558224406895,-0.01287732940536113,0.03443083814069839,0.08977415274400301,0.13204264446594993,0.1441287484871229,0.15743369586519962,0.16099119670253287,0.14561235040539794,0.17857395171339227,0.15137106319384389,0.26712522661278226,0.22465172994210725,0.5443715232705172,0.3170733683202695,-0.18389476853266054,0.3067434337673492,0.23159872184590866,0.2564352209736858,0.19333088959764314,0.15169606673699815,0.11301113403112988,0.07240065880744337,0.01946360191275006,-0.011683981895372602,0.03270149774103267,0.10135578664879649,0.0991531202532735,0.11768775323753869,0.10751916341525547,0.1450158250741447,0.17876432404814604,0.2127490267996845,0.20649493669529886,0.24381850744909336,0.2495742867308627,0.5883713686972407,-0.014297606439098184,-0.03555591533463042,0.2762009564908761,0.22473370160266448,0.2848419317920722,0.22538228375094585,0.18978929577642784,0.09415192853898613,0.04929258066804488,0.0015940197161522878,-0.0013616829442019871,0.06084712599504029,0.11197249519244266,0.16587190719117678,0.2167265002659008,0.2213497249366295,0.23718754378372592,0.1934194211032376,0.40471503325908476,0.6752398389194532,-0.14278695468851493,0.12464407346130461,0.20621008807907004,0.20845903753333342,0.20176078464378086,0.16210232945468828,0.10311808062987607,0.040640810607815686,0.01073320588416462,-0.020783176510608327,0.031852085368410096,0.0956197506912368,0.15676278393703125,0.18855924692379603,0.17874203023214238,0.17079485749145645,0.16888209711125343,0.14818068681086527,0.21984300811098295,0.17807631093981138,0.5680899486862381,0.05086220605621362,-0.049321529511051114,0.318916578126665,0.20269128585431742,0.22502010056605326,0.1214916726557131,0.09702426055401253,0.04202363564028446,0.023262260555744426,0.034385261028654475,0.09352190560297291,0.18228959700846084,0.25716843340398604,0.2682551281464815,0.28849737270631604,0.2612465933810998,0.34002598572975734,0.34368133074662266,0.5676817462651388,0.15499888692630917,-0.1383593080191501,-0.04896224369855386,0.21066800227728197,0.3933192188884145,0.2876245113432081,0.2752709106207284,0.21047343416014735,0.17191160443543904,0.14277155296910302,0.1405898805435835,0.1644548136612191,0.18142808142356512,0.1246946048468089,0.07290218468315089,0.017168909939601417,-0.011829238957725759,-0.004057246432501009,0.007240797002168554,0.011894131317282636,0.012227603526543427,0.024193565929206146,0.04693379778408214,0.06598931960879158,0.1159704749234974,0.12546882888314378,0.19666848388848338,0.21267522326265173,0.3406965673218582,0.6722727885503722,-0.1410944891170306,0.06695879301832283,0.24977846806946752,0.19560141201129916,0.19940913692327322,0.14711435715931923,0.11725489610486234,0.057065899052534154,0.026514309353640807,0.024513754558556942,0.01069311589560955,0.05952710230787581,0.07586261196535883,0.11658072600152514,0.125745362097622,0.0839302758199146,0.09292626373606587,0.08861111951817088,0.13645701969741522,0.12765567109148626,0.20699951105287742,0.20136959930934548,0.5587305338413351,0.3181412940802003,-0.19817364718248787,0.2555281495122817,0.22583630354011325,0.2046964258061582,0.16417980775714172,0.1444161552757004,0.09941121199154809,0.0729666668679453,0.010801838587893424,0.006242660080470488,0.029031467408284717,0.07820956035746916,0.09308766418013406,0.07555634825267768,0.0942661373672764,0.1402518722676621,0.20673620144402968,0.2353336138102468,0.2183181965335313,0.3018437964083693,0.47471257687286283,-0.12249508864498891,0.08970818536343726,0.2531808970756276,0.2578798092389801,0.29156181886155536,0.32301204000183487,0.2913173256034596,0.2565501442399022,0.07561258061952389,0.008009528902653206,0.0757525845594599,0.18374221860726403,0.17802003241681175,0.17012217272444233,0.1746207274625845,0.19986760586120925,0.17740865615971013,0.3573337841940012,0.2973106146335518,0.17518986009164178,0.053358362891962746,0.06062586519055659,0.10088003244218488,0.14453379212561568,0.17958108235756115,0.2374813665411128,0.15560049878152146,-0.04311857167328517,0.08386104247530397,0.03299422356355771,0.256361423199639,0.3459071134448269,0.60398443353642,0.125061135714417,0.16321956351236766,0.24335135684079504,0.14484057410864445,0.14212127279942133,0.09115919551993205,0.05787423722908941,0.029598858643394142,-0.009759183910445732,-0.015415858403787345,0.014030515864359074,0.09790729808397776,0.11098792105965626,0.08261513812721308,0.08124169855244415,0.07291455740749768,0.073873439080108,0.07385882179621127,0.09668322639490111,0.1301285112988701,0.219960924125883,0.22141750257382575,0.473854924426721,0.5581699743956992,-0.16705621158943676,0.09498420463008582,0.2551607347497233,0.20898290493825758,0.15336590237434358,0.13875734617109273,0.10981050192313155,0.05847741827475231,0.03602473842097663,0.022928179848519192,0.03659940144179598,0.0680742332925146,0.11006305011809447,0.09513004526885019,0.11047679210877628,0.11081214767898834,0.11628169676938481,0.14623987743149644,0.1626864161464926,0.16747265017863722,0.19658796914532561,0.21623427471766687,0.5571226652504222,-0.07302383685527279,0.044005429207070824,0.29607743504718953,0.21655054401863522,0.23398393291523834,0.15310247552090003,0.11830094625771877,0.035603947891373264,-0.004048790759935506,-0.005941746249972735,0.03422105343290912,0.11464239078994434,0.16472855450600415,0.20624180160105424,0.1963179297660026,0.193609870091545,0.19466920100189342,0.21263881991003253,0.2042862701583861,0.39044346959932197,0.5590204919179905,-0.1702755148297643,0.1655225157419348,0.2993924460391478,0.21627604538007758,0.2057072346167116,0.14527838957311776,0.09062986595774324,0.04482232860321602,0.024574776811961213,0.04955863252535295,0.10883304690822355,0.15829142728248904,0.18677268998020094,0.15296523451237848,0.16368076582409224,0.12061934753572832,0.17696727869962353,0.20932153186591462,0.6287566652790572,0.052537278396061385,-0.04805679766419818,0.24401088157194029,0.14491891294859047,0.16137963269664046,0.10002860433104263,0.06916719599376141,0.03798931785975462,0.035435380917811676,-0.001614339247011725,0.045357553400975324,0.11202323390967756,0.15749181385449226,0.1634999554624521,0.14487762533299028,0.1573902678625612,0.2802453846930321,0.636474032933343,-0.028576398676697812,0.020625455361547744,0.16227133367735075,0.09608362835966688,0.10510245118333882,0.05974707506941177,0.030225612964910477,0.009996124716562698,-0.0007875426955059576,0.044888425827474696,0.11123072189081273,0.1557862776457921,0.17065080454724596,0.1691849223026185,0.16219770371843784,0.19891780385172683,0.20533414250869406,0.6014487290578371,0.35933689455347423,-0.17775754026935994,0.22331264483216445,0.17485698348329412,0.16498979378483317,0.10104721425127565,0.07987960102956296,0.023562117069363456,0.012712486442520923,0.02777272691201047,0.0573456567638075,0.19450402323644672,0.33459668523766517,0.3366296111879513,0.18354190404883958,0.13089135898164628,0.18358756731766374,0.30555186110087607,0.6017958530453502,0.01075204197006376,-0.03681621306364042,0.2766227700883503,0.16475482051083018,0.1898727284424042,0.10886081730087747,0.08061225470961558,0.021909953638202605,-0.008986873141789406,-0.007754674596762678,0.0028777872129403317,0.13570047772655172,0.19319653916812435,0.16194216709761977,0.19365185735284404,0.05924935604159349,0.18443311928178266,0.18388670176020092,0.04254546966890288,0.12373097818427273,0.09864871485932651,0.20044494807432545,0.18778464122847252,0.5980614524260167,0.14898989477706195,-0.13716032424303526,0.2940537121574802,0.225196621828906,0.23350382847993095,0.16527744385617996,0.13856066584479365,0.084516006258347,0.03096372752462772,-0.01762636786919226,-0.006239896737937658,0.007190748419429508,0.1529705141747606,0.1916929596773483,0.25780875486914523,0.1447693402736254,0.03602724150916685,0.07239590687945405,0.017653220894887224,0.045969212924020765,0.08926313637567852,0.1303564178575513,0.20595994309759835,0.17321927236876652,0.5965750772851304,0.23818580970995007,-0.15395074460111863,0.22112293621427728,0.17609474470493897,0.221262003233834,0.17002882884774648,0.1491663816220574,0.07264430693853083,0.01926697368511421,-0.00310558102837532,-0.022026077013653552,0.09665013847215138,0.12587157261184426,0.2846258593230631,0.2813126189758875,0.1755755803450704,0.1921831698080786,0.5381573897659295,0.3753593305999175,-0.1343707441279313,0.14469224471866593,0.13518919052327527,0.17305014861352666,0.1620161215183325,0.1430646506936872,0.06488494629345774,0.033827719050771525,-0.026756561785775283,-0.022030054835142223,0.024212976864673365,0.07620196420880787,0.12018207050855627,0.12446061929586553,0.11668679343226436,0.09014736947599457,0.07156330770627475,0.06349107795043883,0.05191043677682545,0.0799309826147227,0.10017665105261216,0.1595045314131329,0.1995679769086463,0.2810233978901094,0.24512220761479936,0.6581319501169259,0.47876783531031153,-0.2472098120702289,0.22199741877704257,0.24612786558139646,0.27236203440182244,0.22248731839002153,0.2016433310148651,0.12987566730983127,0.08856479252240873,0.024515695563648278,-8.246325381395127e-07,-0.0004606828843943488,0.008111072145252116,0.05755003827536676,0.08542905551055788,0.07709671988833937,0.055756692395042426,0.044713239651122366,0.04524406287726086,0.041821891374821285,0.06688969455478408,0.07764299021944858,0.07667760903665687,0.14095066465908823,0.1931837702772002,0.28880028155510223,0.2760189650487906,0.5788847540868327,0.6046816733907732,-0.2584616055999686,0.23306751157500355,0.3271005250379361,0.28057543579470823,0.25837002773282797,0.2282010478464021,0.17597537144236317,0.0894937047873512,0.010595934191885292,-0.0014317007714758241,0.013348066836990635,0.07675657909108051,0.11586044681624645,0.13056873378474648,0.15281467347173158,0.156713895273223,0.14740739741575654,0.16474119629681377,0.16191079043574505,0.2519207453217202,0.1800938266567705,0.5234262405975684,0.2953049923609605,-0.17927670065289247,0.3215415822278538,0.23434525849522703,0.2502965913434973,0.17070231317882661,0.16009906649384129,0.10160663776852406,0.05197988378439161,0.023828045123175504,0.022085860328994306,0.08582269463266609,0.1447700241256709,0.14542267919751384,0.1417154041260688,0.14296503005304773,0.17760935772258998,0.20559201055221651,0.25585407030354457,0.3522664266830574,0.6343831153704509,-0.08332422669192902,0.0053279271988332134,0.24534955590357072,0.1690518608585321,0.17450432790867146,0.13869707357811364,0.14398733525714136,0.11964737718199647,0.07796903253801138,0.038038472067391464,0.059582116662709544,0.10287543084808,0.13734728697280574,0.15066897866924792,0.15302832291801394,0.20685647585781616,0.21074558591703424,0.27326808685266096,0.27587952787975933,0.5657221416025381,0.44846663145306004,-0.21120626314554453,0.24175185287569498,0.25830953060088513,0.26488391755649976,0.24496761120856667,0.187164103923822,0.12060814110055654,0.06164527013563323,0.017910281506212065,-0.010383378630170935,0.04157298473201223,0.11218968192765794,0.12458374202612603,0.1334642962013891,0.10572905478642186,0.10393550124713652,0.1231373506315422,0.17327970659925906,0.1331100393758073,0.22135921067707617,0.15187021316178656,0.6053155528579734,0.2665680281075141,-0.16810137717213014,0.27737108193518695,0.1754288708093752,0.22470550862702074,0.13955989503128421,0.12284093051664208,0.04631013672276974,0.009861599802254263,0.009275477872637477,0.0028043335963330706,0.07326344592613139,0.1142084600032789,0.1483472262721868,0.14108136424980938,0.18754365981694004,0.14347068099578014,0.4582471620259389,0.5942237731485677,-0.05884168638281141,0.17323403310322194
